time [ms],amplitude [mV] - raw,amplitude [mV] - filtered,trigger
0.0006510416666666666,0.026515151515151516,2.4153373825565864e-10,0.0
0.0013020833333333333,0.02613532502443793,-1.325453018077483e-05,0.0
0.001953125,0.026244440371456502,-2.631263469247702e-05,0.0
0.0026041666666666665,0.025986925708699902,-3.9385202643501856e-05,0.0
0.003255208333333333,0.025851722873900293,-5.2211572968964285e-05,0.0
0.0039062499999999996,0.025716581133919846,-6.47044613932691e-05,0.0
0.004557291666666666,0.025703690127077225,-7.661592678955056e-05,0.0
0.005208333333333333,0.025690799120234604,-8.763228182461763e-05,0.0
0.005859375,0.025800097751710657,-9.722809566435858e-05,0.0
0.006510416666666667,0.026031524926686218,-0.00010476956326143531,0.0
0.007161458333333334,0.02589626099706745,-0.000109440523157016,0.0
0.0078125,0.025883247800586512,-0.00010999160961800546,0.0
0.008463541666666666,0.025748044965786903,-0.00010522910277500376,0.0
0.009114583333333332,0.025857282502443794,-9.365489828458316e-05,0.0
0.009765624999999998,0.025722079667644185,-7.378464033149114e-05,0.0
0.010416666666666664,0.025586937927663735,-4.3738320403867616e-05,0.0
0.01106770833333333,0.025696236559139787,-1.6300491037374536e-06,0.0
0.011718749999999997,0.025561094819159337,5.440456078581364e-05,0.0
0.012369791666666663,0.025426014173998045,0.000126544225624706,0.0
0.013020833333333329,0.025290994623655916,0.00021688218929223702,0.0
0.013671874999999995,0.025156036168132945,0.00032751353655575483,0.0
0.014322916666666661,0.025143328445747803,0.0004604994927608908,0.0
0.014973958333333327,0.024886241446725316,0.0006177705911281729,0.0
0.015624999999999993,0.024995845552297162,0.0008013360258495047,0.0
0.01627604166666666,0.02486100928641251,0.0010127612771888722,0.0
0.01692708333333333,0.024848423753665687,0.001253747490204446,0.0
0.017578124999999997,0.024591458944281525,0.001525613759669319,0.0
0.018229166666666664,0.02482337487781036,0.001829637832396854,0.0
0.018880208333333332,0.024932978983382207,0.00216648386164232,0.0
0.01953125,0.025042521994134898,0.00253685584895772,0.0
0.020182291666666668,0.02515200391006843,0.002941116529485867,0.0
0.020833333333333336,0.025017045454545455,0.0033793381639491923,0.0
0.021484375000000003,0.025004337732160313,0.0038514187429300704,0.0
0.02213541666666667,0.024869440371456497,0.004356774794289761,0.0
0.02278645833333334,0.024734604105571847,0.004894649247152623,0.0
0.023437500000000007,0.024722018572825022,0.0054639344107359315,0.0
0.024088541666666675,0.02422067448680352,0.0060631818261518595,0.0
0.024739583333333343,0.024330522971652002,0.006690981951845719,0.0
0.02539062500000001,0.024195931085043986,0.007345124862500596,0.0
0.026041666666666678,0.024061400293255132,0.00802359634195547,0.0
0.026692708333333346,0.023926930596285433,0.008724048813307394,0.0
0.027343750000000014,0.023914711632453567,0.009443946188355411,0.0
0.02799479166666668,0.02402468230694037,0.01018052697483567,0.0
0.02864583333333335,0.024134591886608013,0.010930890794119108,0.0
0.029296875000000017,0.02436663000977517,0.011692085831809938,0.0
0.029947916666666685,0.024231977028347996,0.012461013677792235,0.0
0.030598958333333353,0.02421957478005865,0.013234762244347921,0.0
0.03125000000000002,0.024084982893450634,0.014010144571876765,0.0
0.031901041666666685,0.024072641739980447,0.014784092745943493,0.0
0.03255208333333335,0.024060300586510264,0.015553440299939056,0.0
0.033203125000000014,0.023803580156402736,0.016315131388325528,0.0
0.03385416666666668,0.02391355083088954,0.017066306586841246,0.0
0.03450520833333334,0.02377908113391984,0.017803898494083113,0.0
0.03515625000000001,0.023766862170087975,0.018525264286226025,0.0
0.03580729166666667,0.023510263929618767,0.01922771673136508,0.0
0.036458333333333336,0.023375977517106548,0.019908908554199894,0.0
0.037109375,0.02336394183773216,0.020566481557977016,0.0
0.037760416666666664,0.0232297165200391,0.02119826339156643,0.0
0.03841145833333333,0.023462121212121212,0.021802400959395625,0.0
0.03906249999999999,0.023327834799608992,0.02237700281890778,0.0
0.03971354166666666,0.023315799120234605,0.022920756901556254,0.0
0.04036458333333332,0.023181573802541544,0.023432324226487455,0.0
0.041015624999999986,0.023291788856304986,0.023910708097355512,0.0
0.04166666666666665,0.023279753176930595,0.024354949294751543,0.0
0.042317708333333315,0.023267717497556205,0.024764491441341165,0.0
0.04296874999999998,0.02350006109481916,0.025138933667213204,0.0
0.043619791666666644,0.02336571358748778,0.025477964945891253,0.0
0.04427083333333331,0.02335361681329423,0.02578178572050089,0.0
0.04492187499999997,0.02321933040078201,0.026050550680065832,0.0
0.04557291666666664,0.023207294721407624,0.026284726735106925,0.0
0.0462239583333333,0.023195259042033234,0.026484838914312088,0.0
0.046874999999999965,0.022694464809384165,0.026651642890046477,0.0
0.04752604166666663,0.022804863147605083,0.026786296568369675,0.0
0.048177083333333294,0.0226708211143695,0.026889553317908536,0.0
0.04882812499999996,0.022659029814271748,0.02696272620524297,0.0
0.04947916666666662,0.022525048875855328,0.02700706316078803,0.0
0.05013020833333329,0.022391129032258063,0.02702403813186932,0.0
0.05078124999999995,0.022501649560117302,0.02701515321003741,0.0
0.051432291666666616,0.022734298631476052,0.026981862842246365,0.0
0.05208333333333328,0.02284463587487781,0.026925742494243395,0.0
0.052734374999999944,0.022832722385141738,0.02684853540327803,0.0
0.05338541666666661,0.022820808895405668,0.0267520165251524,0.0
0.05403645833333327,0.022808895405669598,0.026637918201132735,0.0
0.05468749999999994,0.022796981915933528,0.02650797872072012,0.0
0.0553385416666666,0.022662878787878787,0.02636393053501497,0.0
0.055989583333333266,0.022406647116324535,0.026207550326255796,0.0
0.05664062499999993,0.022394916911045944,0.02604058764159249,0.0
0.057291666666666595,0.02226099706744868,0.0258645720630503,0.0
0.05794270833333326,0.022249327956989248,0.025681170931833315,0.0
0.058593749999999924,0.022115469208211145,0.02549187573013219,0.0
0.05924479166666659,0.0219816715542522,0.025298239036588975,0.0
0.05989583333333325,0.021970124633431086,0.025101684558893105,0.0
0.06054687499999992,0.02195857771260997,0.024903501205674358,0.0
0.06119791666666658,0.022069220430107526,0.02470496012053322,0.0
0.061848958333333245,0.021935422776148582,0.024507188141265644,0.0
0.06249999999999991,0.022046065493646138,0.024311408671200255,0.0
0.06315104166666657,0.022034457478005864,0.024118511375815693,0.0
0.06380208333333325,0.02202284946236559,0.023929478079108436,0.0
0.06445312499999992,0.022011241446725317,0.023745137476416055,0.0
0.06510416666666659,0.021999633431085044,0.02356622615151069,0.0
0.06575520833333326,0.02211021505376344,0.023393389283270272,0.0
0.06640624999999993,0.021976356304985338,0.023227120988035033,0.0
0.0670572916666666,0.022086937927663735,0.023068010811244946,0.0
0.06770833333333327,0.02195307917888563,0.022916318789607426,0.0
0.06835937499999994,0.021819281524926685,0.02277246747564142,0.0
0.06901041666666662,0.021685544965786903,0.022636679085943606,0.0
0.06966145833333329,0.021429679863147606,0.022509101753020698,0.0
0.07031249999999996,0.02141831622678397,0.022389874910163348,0.0
0.07096354166666663,0.021284762952101664,0.022278889321283347,0.0
0.0716145833333333,0.021395650048875857,0.022176158099646445,0.0
0.07226562499999997,0.02126209677419355,0.022081454592993897,0.0
0.07291666666666664,0.021250794232649074,0.02199474450264777,0.0
0.07356770833333331,0.021239491691104596,0.021915762683378647,0.0
0.07421874999999999,0.02147256842619746,0.021844261996892378,0.0
0.07486979166666666,0.021583333333333333,0.021779834520359323,0.0
0.07552083333333333,0.02157184750733138,0.02172222156018899,0.0
0.076171875,0.021682551319648094,0.021671134988265908,0.0
0.07682291666666667,0.02154881476050831,0.021626139761902453,0.0
0.07747395833333334,0.021659518572825026,0.021586964163917217,0.0
0.07812500000000001,0.02152578201368524,0.021553076899423252,0.0
0.07877604166666669,0.021025537634408602,0.021524180531859248,0.0
0.07942708333333336,0.021136485826001954,0.02150003269508522,0.0
0.08007812500000003,0.021002993646138807,0.021479900437599946,0.0
0.0807291666666667,0.02099175219941349,0.021463480443004477,0.0
0.08138020833333337,0.020858321114369503,0.021450291438562658,0.0
0.08203125000000004,0.020847140762463343,0.02143998259193759,0.0
0.08268229166666671,0.020835960410557186,0.02143209164385832,0.0
0.08333333333333338,0.020946969696969697,0.021426230323773908,0.0
0.08398437500000006,0.02093572825024438,0.02142196395585172,0.0
0.08463541666666673,0.020924486803519063,0.02141899626352075,0.0
0.0852864583333334,0.020913245356793744,0.021416987387090296,0.0
0.08593750000000007,0.020902003910068426,0.02141561610033898,0.0
0.08658854166666674,0.02101295210166178,0.021414580769738994,0.0
0.08723958333333341,0.021001649560117304,0.021413539068878704,0.0
0.08789062500000008,0.020868157380254156,0.021412291938212345,0.0
0.08854166666666675,0.020979105571847508,0.02141066194794574,0.0
0.08919270833333343,0.02084561339198436,0.02140831043867047,0.0
0.0898437500000001,0.020834371945259042,0.021405165467123,0.0
0.09049479166666677,0.020578751221896386,0.021400994264780225,0.0
0.09114583333333344,0.020567631964809385,0.02139576974604321,0.0
0.09179687500000011,0.020434323069403716,0.02138924256878122,0.0
0.09244791666666678,0.020301075268817206,0.021381368279705555,0.0
0.09309895833333345,0.020412267839687196,0.021372062166103697,0.0
0.09375000000000012,0.020279020039100686,0.02136113715733222,0.0
0.0944010416666668,0.020268022971652006,0.021348669194296874,0.0
0.09505208333333347,0.020257025904203325,0.021334568222116858,0.0
0.09570312500000014,0.020246028836754644,0.021318821131389488,0.0
0.09635416666666681,0.020235031769305963,0.021301429175318243,0.0
0.09700520833333348,0.020712793255131964,0.021282406478415398,0.0
0.09765625000000015,0.02070155180840665,0.021261534225567955,0.0
0.09830729166666682,0.02056812072336266,0.021239092511741574,0.0
0.0989583333333335,0.02067913000977517,0.021215187225186043,0.0
0.09960937500000017,0.020545698924731185,0.021189749198976385,0.0
0.10026041666666684,0.020534518572825025,0.021162961206653258,0.0
0.10091145833333351,0.020401148582600198,0.021134829747449953,0.0
0.10156250000000018,0.020023460410557185,0.02110549002149585,0.0
0.10221354166666685,0.020134714076246337,0.021075144315148397,0.0
0.10286458333333352,0.020123717008797656,0.02104363372251895,0.0
0.1035156250000002,0.019990530303030305,0.021011109435289,0.0
0.10416666666666687,0.019857404692082112,0.0209777263829549,0.0
0.10481770833333354,0.019846529814271752,0.020943581147690404,0.0
0.10546875000000021,0.01983565493646139,0.020908710890020735,0.0
0.10611979166666688,0.0199469696969697,0.020873214401929935,0.0
0.10677083333333355,0.020180413000977518,0.020837128764251173,0.0
0.10742187500000022,0.020047165200391008,0.020800489345854038,0.0
0.1080729166666669,0.020158357771260998,0.020763573225597968,0.0
0.10872395833333356,0.02014729960899316,0.020726348575543684,0.0
0.10937500000000024,0.02013624144672532,0.020688962865243958,0.0
0.11002604166666691,0.02012518328445748,0.020651498125188412,0.0
0.11067708333333358,0.0198697458455523,0.020614031854669562,0.0
0.11132812500000025,0.019858809872922777,0.020576759150639883,0.0
0.11197916666666692,0.01984787390029326,0.020539626143408134,0.0
0.11263020833333359,0.019836937927663736,0.020502696578378728,0.0
0.11328125000000026,0.019703812316715544,0.020466029618471996,0.0
0.11393229166666693,0.019570747800586513,0.020429740905444846,0.0
0.1145833333333336,0.01968212365591398,0.020393880307148844,0.0
0.11523437500000028,0.019426869501466278,0.020358370720075906,0.0
0.11588541666666695,0.019538306451612905,0.02032343558802192,0.0
0.11653645833333362,0.019405303030303033,0.02028892667968302,0.0
0.11718750000000029,0.01939455034213099,0.020254995931221674,0.0
0.11783854166666696,0.019383797653958947,0.020221606482856168,0.0
0.11848958333333363,0.019495234604105575,0.020188776869021895,0.0
0.1191406250000003,0.019606610459433044,0.020156458683953767,0.0
0.11979166666666698,0.01959573558162268,0.0201246587133768,0.0
0.12044270833333365,0.019829239980449657,0.020093439012704464,0.0
0.12109375000000032,0.01969605327468231,0.020062672781406048,0.0
0.12174479166666699,0.019685117302052788,0.020032533567739347,0.0
0.12239583333333366,0.019674181329423265,0.020002946039921102,0.0
0.12304687500000033,0.019663245356793743,0.019973892218443763,0.0
0.123697916666667,0.019530119745845554,0.01994535121536313,0.0
0.12434895833333368,0.01903048631476051,0.019917361180283987,0.0
0.12500000000000033,0.019142045454545453,0.01989008119021144,0.0
0.125651041666667,0.0190091642228739,0.01986318094873208,0.0
0.12630208333333365,0.018998533724340176,0.01983675763777769,0.0
0.1269531250000003,0.01898790322580645,0.019810725170509927,0.0
0.12760416666666696,0.018977272727272725,0.019785058582216356,0.0
0.12825520833333362,0.018966642228739002,0.01975973281430429,0.0
0.12890625000000028,0.01920039100684262,0.01973472251876888,0.0
0.12955729166666693,0.01931182795698925,0.019709879661508178,0.0
0.1302083333333336,0.019301014173998047,0.019685238850251658,0.0
0.13085937500000025,0.019290200391006845,0.019660834034070138,0.0
0.1315104166666669,0.019279386608015644,0.019636637558049806,0.0
0.13216145833333356,0.01926857282502444,0.01961262156271238,0.0
0.13281250000000022,0.019257759042033237,0.019588758405070864,0.0
0.13346354166666688,0.01900256598240469,0.019565021151304603,0.0
0.13411458333333354,0.01911406402737048,0.0195415062814771,0.0
0.1347656250000002,0.018981121700879764,0.01951800650958575,0.0
0.13541666666666685,0.01884824046920821,0.019494622137789713,0.0
0.1360677083333335,0.018837609970674483,0.019471333691491743,0.0
0.13671875000000017,0.01870478983382209,0.019448063186493295,0.0
0.13736979166666682,0.018816410068426197,0.019424857447958948,0.0
0.13802083333333348,0.01856140029325513,0.019401582537204004,0.0
0.13867187500000014,0.018673081622678396,0.019378412296418675,0.0
0.1393229166666668,0.01866251221896383,0.019355156000424426,0.0
0.13997395833333345,0.018651942815249265,0.019331868934768077,0.0
0.1406250000000001,0.01851918377321603,0.01930854652144749,0.0
0.14127604166666677,0.018753054740957967,0.019285246112694308,0.0
0.14192708333333343,0.01886461388074291,0.01926178115298248,0.0
0.14257812500000008,0.018853922287390027,0.01923820964185271,0.0
0.14322916666666674,0.018965420332355817,0.01921458957681523,0.0
0.1438802083333334,0.018954667644183774,0.019190856742417536,0.0
0.14453125000000006,0.01894391495601173,0.019167069232891732,0.0
0.1451822916666667,0.018810972629521014,0.01914322445570356,0.0
0.14583333333333337,0.018800281036168133,0.019119381710980005,0.0
0.14648437500000003,0.018667399804496578,0.01909547933869101,0.0
0.14713541666666669,0.01841239002932551,0.019071579505533183,0.0
0.14778645833333334,0.018401881720430106,0.019047746335082282,0.0
0.1484375,0.01826918377321603,0.01902386279652707,0.0
0.14908854166666666,0.018258736559139784,0.018999997260348716,0.0
0.14973958333333331,0.018126099706744867,0.018976097817650257,0.0
0.15039062499999997,0.01811571358748778,0.018952236280158522,0.0
0.15104166666666663,0.018227517106549365,0.01892836328314426,0.0
0.1516927083333333,0.01833925953079179,0.01890442986590954,0.0
0.15234374999999994,0.01857313049853372,0.018880447935745077,0.0
0.1529947916666666,0.018318120723362658,0.01885636751438746,0.0
0.15364583333333326,0.018429802052785924,0.01883244288630109,0.0
0.15429687499999992,0.018541422287390027,0.01880849921419234,0.0
0.15494791666666657,0.018530791788856305,0.018784543405722637,0.0
0.15559895833333323,0.01839797165200391,0.01876064199235772,0.0
0.1562499999999999,0.018143022971652004,0.018736860234205358,0.0
0.15690104166666655,0.018254765395894428,0.01871326240328624,0.0
0.1575520833333332,0.01799987781036168,0.018689667696603643,0.0
0.15820312499999986,0.018111681329423264,0.018666261420502744,0.0
0.15885416666666652,0.017979044477028347,0.018642861999518597,0.0
0.15950520833333318,0.01784646871945259,0.01861959307045301,0.0
0.16015624999999983,0.017836143695014663,0.018596455777860014,0.0
0.1608072916666665,0.017948008308895404,0.01857338974144727,0.0
0.16145833333333315,0.01793762218963832,0.018550333951233445,0.0
0.1621093749999998,0.01792723607038123,0.01852734872348837,0.0
0.16276041666666646,0.017916849951124143,0.018504432198218655,0.0
0.16341145833333312,0.01790646383186706,0.018481581267965397,0.0
0.16406249999999978,0.01801826735092864,0.018458791479895882,0.0
0.16471354166666644,0.018007820136852395,0.018435995919569615,0.0
0.1653645833333331,0.01811956256109482,0.018413248563021796,0.0
0.16601562499999975,0.018109054252199414,0.01839048006927831,0.0
0.1666666666666664,0.017976356304985334,0.018367742443031743,0.0
0.16731770833333307,0.018088098729227762,0.018345087228826377,0.0
0.16796874999999972,0.017955400782013686,0.018322382678830754,0.0
0.16861979166666638,0.01782276392961877,0.018299741895413068,0.0
0.16927083333333304,0.01769018817204301,0.01827715672322683,0.0
0.1699218749999997,0.01755767350928641,0.01825462033045932,0.0
0.17057291666666635,0.017669599217986314,0.01823212747757385,0.0
0.171223958333333,0.017537084555229718,0.018209552441342015,0.0
0.17187499999999967,0.017526820625610947,0.01818701554637849,0.0
0.17252604166666632,0.01751655669599218,0.018164455341463777,0.0
0.17317708333333298,0.01750629276637341,0.018141872728510866,0.0
0.17382812499999964,0.01749602883675464,0.01811926955742767,0.0
0.1744791666666663,0.017607954545454545,0.01809664828819296,0.0
0.17513020833333295,0.01784200879765396,0.018073950568220136,0.0
0.1757812499999996,0.017831561583577713,0.018051118059093808,0.0
0.17643229166666627,0.017821114369501467,0.018028275570540358,0.0
0.17708333333333293,0.017810667155425217,0.018005425593183393,0.0
0.17773437499999958,0.017922409579667644,0.01798257065073319,0.0
0.17838541666666624,0.01778971163245357,0.017959652491463265,0.0
0.1790364583333329,0.01753488514173998,0.017936796836403306,0.0
0.17968749999999956,0.01752456011730205,0.0179140693985538,0.0
0.1803385416666662,0.017269855816226785,0.017891354046217726,0.0
0.18098958333333287,0.017381842619745846,0.01786878069694274,0.0
0.18164062499999953,0.017249389051808405,0.01784617552259533,0.0
0.18229166666666619,0.017116996578690126,0.017823671775716407,0.0
0.18294270833333284,0.017106854838709676,0.017801281840775073,0.0
0.1835937499999995,0.0172189027370479,0.017778957904727357,0.0
0.18424479166666616,0.01733088954056696,0.01775665252238945,0.0
0.18489583333333282,0.01732062561094819,0.017734379136332346,0.0
0.18554687499999947,0.017432551319648094,0.01771221153466276,0.0
0.18619791666666613,0.017422226295210164,0.017690100124689894,0.0
0.1868489583333328,0.01741190127077224,0.01766811600987116,0.0
0.18749999999999944,0.01740157624633431,0.017646267554274533,0.0
0.1881510416666661,0.017391251221896383,0.017624561466259726,0.0
0.18880208333333276,0.017503115835777124,0.017603002902470813,0.0
0.18945312499999942,0.017370540078201366,0.017581534567317234,0.0
0.19010416666666607,0.01748240469208211,0.017560281358702304,0.0
0.19075520833333273,0.017349828934506352,0.017539123024864618,0.0
0.1914062499999994,0.017095124633431085,0.017518183271685514,0.0
0.19205729166666605,0.017084921798631476,0.01749752462385301,0.0
0.1927083333333327,0.016830339687194527,0.017477026498011538,0.0
0.19335937499999936,0.016942448680351906,0.01745681299736541,0.0
0.19401041666666602,0.016810117302052785,0.017436703023776784,0.0
0.19466145833333268,0.016922226295210167,0.017416821031136284,0.0
0.19531249999999933,0.016912084555229717,0.017397046854955404,0.0
0.195963541666666,0.016901942815249267,0.017377442992811926,0.0
0.19661458333333265,0.016891801075268817,0.01735800983258573,0.0
0.1972656249999993,0.017126038611925708,0.017338746391460578,0.0
0.19791666666666596,0.01723796432062561,0.017319527846077654,0.0
0.19856770833333262,0.01722763929618768,0.01730041084838184,0.0
0.19921874999999928,0.017217314271749756,0.017281450251563045,0.0
0.19986979166666594,0.017206989247311826,0.017262638212551976,0.0
0.2005208333333326,0.01731885386119257,0.017243965647991816,0.0
0.20117187499999925,0.017186278103616812,0.01722536162135211,0.0
0.2018229166666659,0.016809384164222875,0.017206938279307114,0.0
0.20247395833333257,0.016921432062561095,0.01718880813970715,0.0
0.20312499999999922,0.016789039589442816,0.01717071802793267,0.0
0.20377604166666588,0.016656708211143696,0.017152782578795704,0.0
0.20442708333333254,0.016524437927663733,0.017134995665103875,0.0
0.2050781249999992,0.016514418377321604,0.01711735258868082,0.0
0.20572916666666585,0.01662658846529814,0.017099788803925355,0.0
0.2063802083333325,0.01686088709677419,0.017082240676131826,0.0
0.20703124999999917,0.017095063538611927,0.017064645063242224,0.0
0.20768229166666582,0.016962548875855327,0.017047000020103623,0.0
0.20833333333333248,0.01695228494623656,0.017029486728003775,0.0
0.20898437499999914,0.01694202101661779,0.017012041747261116,0.0
0.2096354166666658,0.01693175708699902,0.016994662564203962,0.0
0.21028645833333245,0.017043682795698924,0.01697734667748033,0.0
0.2109374999999991,0.016911168132942325,0.0169600307533299,0.0
0.21158854166666577,0.017023093841642228,0.01694283530043144,0.0
0.21223958333333243,0.01676838954056696,0.01692563732632714,0.0
0.21289062499999908,0.01675818670576735,0.016908620505056874,0.0
0.21354166666666574,0.01674798387096774,0.016891664495329486,0.0
0.2141927083333324,0.01661559139784946,0.016874772780518098,0.0
0.21484374999999906,0.01660544965786901,0.01685801163418588,0.0
0.2154947916666657,0.01647311827956989,0.016841326771795548,0.0
0.21614583333333237,0.016585227272727272,0.01682478754269156,0.0
0.21679687499999903,0.01645289589442815,0.016808281155013014,0.0
0.21744791666666569,0.01644281524926686,0.01679193994795138,0.0
0.21809895833333234,0.016432734604105572,0.01677571327532181,0.0
0.218749999999999,0.01642265395894428,0.01675961139710964,0.0
0.21940104166666566,0.016656952590420333,0.01674364388785243,0.0
0.22005208333333232,0.01664674975562072,0.016727696979518123,0.0
0.22070312499999897,0.016880926197458453,0.016711899746908614,0.0
0.22135416666666563,0.016870601173020527,0.016696135108659367,0.0
0.2220052083333323,0.016860276148582598,0.016680528532179623,0.0
0.22265624999999895,0.016727761485826,0.01666508160856664,0.0
0.2233072916666656,0.016839687194525905,0.01664985564766121,0.0
0.22395833333333226,0.016707172531769305,0.01663472771655299,0.0
0.22460937499999892,0.016330339687194526,0.016619818763545704,0.0
0.22526041666666557,0.016442448680351905,0.016605249675406438,0.0
0.22591145833333223,0.016187927663734114,0.01659077504638974,0.0
0.2265624999999989,0.016177908113391985,0.01657657758544582,0.0
0.22721354166666555,0.01604569892473118,0.016562534959408137,0.0
0.2278645833333322,0.01615793010752688,0.016548708342356926,0.0
0.22851562499999886,0.01627010019550342,0.016534975476843194,0.0
0.22916666666666552,0.0163822091886608,0.016521335678078168,0.0
0.22981770833333218,0.01661644672531769,0.01650778716361907,0.0
0.23046874999999883,0.016483993157380254,0.016494265564829084,0.0
0.2311197916666655,0.016595979960899315,0.01648094917079044,0.0
0.23177083333333215,0.016463526392961877,0.01646770903958596,0.0
0.2324218749999988,0.016575513196480936,0.01645465899506234,0.0
0.23307291666666546,0.01656524926686217,0.016441667149398997,0.0
0.23372395833333212,0.01631060606060606,0.016428783943355344,0.0
0.23437499999999878,0.01642265395894428,0.016416120386748372,0.0
0.23502604166666544,0.01616807184750733,0.016403481922712283,0.0
0.2356770833333321,0.01628018084066471,0.016391040852804455,0.0
0.23632812499999875,0.01614784946236559,0.016378603490233252,0.0
0.2369791666666654,0.01601557917888563,0.016366282384091043,0.0
0.23763020833333207,0.016127749266862168,0.016354068722338487,0.0
0.23828124999999872,0.01599547898338221,0.01634183228644453,0.0
0.23893229166666538,0.016107649071358747,0.016329687876458616,0.0
0.23958333333333204,0.01609756842619746,0.016317506339056848,0.0
0.2402343749999987,0.015965298142717497,0.016305341985666903,0.0
0.24088541666666535,0.016077468230694038,0.016293249062378636,0.0
0.241536458333332,0.016189577223851417,0.016281098240648415,0.0
0.24218749999999867,0.016179435483870967,0.016268881906399257,0.0
0.24283854166666533,0.01616929374389052,0.016256652949329282,0.0
0.24348958333333198,0.01640353128054741,0.016244402555153074,0.0
0.24414062499999864,0.01639326735092864,0.016231999206204765,0.0
0.2447916666666653,0.016383003421309873,0.016219555469446614,0.0
0.24544270833333195,0.016250549853372435,0.016207061772531527,0.0
0.2460937499999986,0.016240347018572826,0.016194570133922302,0.0
0.24674479166666527,0.016107954545454543,0.01618201136779927,0.0
0.24739583333333193,0.015731243890518082,0.016169439925949963,0.0
0.24804687499999858,0.01584347507331378,0.01615697316612861,0.0
0.24869791666666524,0.01571126588465298,0.016144363883664074,0.0
0.2493489583333319,0.01582349706744868,0.016131733436971614,0.0
0.24999999999999856,0.01569128787878788,0.016118960590810423,0.0
0.25065104166666524,0.015681329423264907,0.016106169918092054,0.0
0.2513020833333319,0.015671370967741936,0.016093303683016928,0.0
0.2519531249999986,0.015905791788856306,0.016080365713007187,0.0
0.2526041666666653,0.016140090420332355,0.016067237600969207,0.0
0.253255208333332,0.016129887585532746,0.016053922638842553,0.0
0.25390624999999867,0.016119684750733138,0.01604054552469902,0.0
0.25455729166666535,0.01610948191593353,0.016027107896786175,0.0
0.25520833333333204,0.01609927908113392,0.016013610637596775,0.0
0.2558593749999987,0.01608907624633431,0.016000054143228894,0.0
0.2565104166666654,0.01583449413489736,0.015986438690234018,0.0
0.2571614583333321,0.01594660312805474,0.015972887030355876,0.0
0.2578124999999988,0.015692082111436953,0.01595921710788492,0.0
0.25846354166666546,0.01580425219941349,0.015945614404436162,0.0
0.25911458333333215,0.01567198191593353,0.01593189898887293,0.0
0.25976562499999883,0.015417583088954056,0.01591819762020189,0.0
0.2604166666666655,0.015529875366568916,0.015904577105089086,0.0
0.2610677083333322,0.015519916911045943,0.015890860800884924,0.0
0.2617187499999989,0.01563214809384164,0.01587711703301943,0.0
0.2623697916666656,0.015499938905180841,0.015863292100078603,0.0
0.26302083333333226,0.015612170087976539,0.015849515298857395,0.0
0.26367187499999895,0.015602150537634408,0.01583567083841558,0.0
0.26432291666666563,0.01571432062561095,0.01582182514063769,0.0
0.2649739583333323,0.015704239980449657,0.015807921089333495,0.0
0.265624999999999,0.015694159335288366,0.01579402224389911,0.0
0.2662760416666657,0.015806268328445748,0.015780129514555246,0.0
0.26692708333333237,0.015673936950146627,0.015766181245068595,0.0
0.26757812499999906,0.015663856304985336,0.015752297783212355,0.0
0.26822916666666574,0.015653775659824044,0.015738415184623225,0.0
0.2688802083333324,0.015643695014662756,0.01572452991019173,0.0
0.2695312499999991,0.015389235092864125,0.015710638058930308,0.0
0.2701822916666658,0.015257086999022482,0.01569685786015356,0.0
0.2708333333333325,0.01536937927663734,0.015683124432593863,0.0
0.27148437499999917,0.015237231182795699,0.0156693120943045,0.0
0.27213541666666585,0.015227333822091887,0.01565553982974564,0.0
0.27278645833333254,0.015095246823069404,0.015641743508979452,0.0
0.2734374999999992,0.01520760019550342,0.015627981158923346,0.0
0.2740885416666659,0.015197702834799608,0.015614127222418119,0.0
0.2747395833333326,0.015432184750733137,0.015600238828907704,0.0
0.2753906249999993,0.01566654447702835,0.015586188951424919,0.0
0.27604166666666596,0.015534213098729228,0.015571971705253521,0.0
0.27669270833333265,0.015646322091886607,0.015557763435787995,0.0
0.27734374999999933,0.015636180351906157,0.015543434151737305,0.0
0.277994791666666,0.015748228250244377,0.015529036656609893,0.0
0.2786458333333327,0.0156158357771261,0.015514501588968837,0.0
0.2792968749999994,0.015239125122189638,0.015499943506412598,0.0
0.2799479166666661,0.015229166666666667,0.015485478237738572,0.0
0.28059895833333276,0.015097018572825024,0.01547091797240336,0.0
0.28124999999999944,0.015209310850439882,0.015456321508903708,0.0
0.28190104166666613,0.01507716275659824,0.015441566773330324,0.0
0.2825520833333328,0.014945075757575758,0.015426778464421639,0.0
0.2832031249999995,0.015057429130009776,0.015411961297526753,0.0
0.2838541666666662,0.015169721407624634,0.015396999679718595,0.0
0.28450520833333287,0.015159762952101662,0.015381901667374217,0.0
0.28515624999999956,0.01514980449657869,0.015366737414867083,0.0
0.28580729166666624,0.01526203567937439,0.015351516556008358,0.0
0.2864583333333329,0.015252016129032257,0.015336187842852754,0.0
0.2871093749999996,0.015364186217008798,0.015320822159152179,0.0
0.2877604166666663,0.015354105571847507,0.015305367976689148,0.0
0.288411458333333,0.015221835288367546,0.015289895685207463,0.0
0.28906249999999967,0.015334005376344086,0.015274475459324055,0.0
0.28971354166666635,0.015201735092864124,0.015258994106969728,0.0
0.29036458333333304,0.015313905180840665,0.015243582905948452,0.0
0.2910156249999997,0.015181634897360703,0.015228129029301167,0.0
0.2916666666666664,0.015049425708699903,0.015212764478233907,0.0
0.2923177083333331,0.014917277614858261,0.015197499652673222,0.0
0.2929687499999998,0.014907380254154447,0.015182345607528954,0.0
0.29361979166666646,0.014775293255131966,0.015167252911832192,0.0
0.29427083333333315,0.014765456989247312,0.015152294753266002,0.0
0.29492187499999983,0.014877810361681329,0.015137422249653306,0.0
0.2955729166666665,0.014745723362658846,0.01512258622760009,0.0
0.2962239583333332,0.014858076735092863,0.015107920039054399,0.0
0.2968749999999999,0.01484817937438905,0.015093311421929692,0.0
0.2975260416666666,0.01508266129032258,0.015078829724768029,0.0
0.29817708333333326,0.01519483137829912,0.015064358981397765,0.0
0.29882812499999994,0.015184750733137829,0.015049964260718482,0.0
0.29947916666666663,0.01517467008797654,0.015035708348068126,0.0
0.3001302083333333,0.015164589442815249,0.0150215908148752,0.0
0.30078125,0.015154508797653959,0.01500760944798099,0.0
0.3014322916666667,0.015144428152492668,0.014993760702706084,0.0
0.30208333333333337,0.014889968230694037,0.01498004022026411,0.0
0.30273437500000006,0.014880009775171066,0.014966565543227478,0.0
0.30338541666666674,0.014747861681329423,0.014953210017668226,0.0
0.3040364583333334,0.014615774682306942,0.014940030812021098,0.0
0.3046875000000001,0.014483748778103617,0.014927024733380184,0.0
0.3053385416666668,0.014473973607038122,0.01491418933464164,0.0
0.3059895833333335,0.01446419843597263,0.014901461643321998,0.0
0.30664062500000017,0.014698802541544476,0.01488884000831607,0.0
0.30729166666666685,0.014811094819159334,0.014876200365904773,0.0
0.30794270833333354,0.014801136363636364,0.014863601250019334,0.0
0.3085937500000002,0.014913367546432063,0.014851100126024362,0.0
0.3092447916666669,0.01490334799608993,0.014838630967064304,0.0
0.3098958333333336,0.015015518084066471,0.014826248571559496,0.0
0.3105468750000003,0.014883247800586509,0.014813884291685899,0.0
0.31119791666666696,0.01487322825024438,0.014801651764550096,0.0
0.31184895833333365,0.014863208699902248,0.014789480710967527,0.0
0.31250000000000033,0.014730999511241447,0.014777361740553272,0.0
0.313151041666667,0.014721041055718474,0.014765346782927413,0.0
0.3138020833333337,0.014588892961876834,0.014753366193971662,0.0
0.3144531250000004,0.014578995601173022,0.014741473446745123,0.0
0.3151041666666671,0.014446908602150537,0.014729600956102935,0.0
0.31575520833333376,0.014559261974584556,0.014717804538591218,0.0
0.31640625000000044,0.014671554252199414,0.01470595789878554,0.0
0.31705729166666713,0.014539406158357773,0.01469405797226278,0.0
0.3177083333333338,0.014529508797653959,0.014682224749160092,0.0
0.3183593750000005,0.014519611436950146,0.014670395614504568,0.0
0.3190104166666672,0.014509714076246334,0.014658569543338752,0.0
0.31966145833333387,0.014622006353861192,0.01464674582358372,0.0
0.32031250000000056,0.014734237536656892,0.01463486279192666,0.0
0.32096354166666724,0.01484640762463343,0.01462291989637004,0.0
0.3216145833333339,0.014836326979472141,0.014610916557172334,0.0
0.3222656250000006,0.014826246334310851,0.01459891333400457,0.0
0.3229166666666673,0.01481616568914956,0.014586909931264488,0.0
0.323567708333334,0.014806085043988268,0.01457490658528145,0.0
0.32421875000000067,0.01467381476050831,0.014562904411508716,0.0
0.32486979166666735,0.014297226295210167,0.014550966850742428,0.0
0.32552083333333404,0.014409579667644183,0.014539219960156353,0.0
0.3261718750000007,0.014277492668621702,0.014527424905447882,0.0
0.3268229166666674,0.014389846041055719,0.014515711068132197,0.0
0.3274739583333341,0.014135569403714566,0.014503964880323232,0.0
0.3281250000000008,0.014247983870967743,0.014492379310097192,0.0
0.32877604166666746,0.01436033724340176,0.014480781339200346,0.0
0.32942708333333415,0.014472629521016618,0.014469181269805538,0.0
0.33007812500000083,0.014584860703812316,0.014457588890962566,0.0
0.3307291666666675,0.014574841153470186,0.014446013006328655,0.0
0.3313802083333342,0.014687011241446724,0.014434522198106273,0.0
0.3320312500000009,0.014554740957966765,0.014423061383087141,0.0
0.3326822916666676,0.014544721407624632,0.014411757293427406,0.0
0.33333333333333426,0.014656891495601173,0.014400552048219849,0.0
0.33398437500000094,0.01440243157380254,0.0143893866677738,0.0
0.33463541666666763,0.01451466275659824,0.014378445729847474,0.0
0.3352864583333343,0.01450464320625611,0.014367546708231772,0.0
0.335937500000001,0.014372434017595307,0.014356751186154884,0.0
0.3365885416666677,0.014240285923753666,0.014346120700025347,0.0
0.33723958333333437,0.014230388563049853,0.014335655805335806,0.0
0.33789062500000105,0.014220491202346041,0.01432529614805131,0.0
0.33854166666666774,0.014088404203323558,0.014315042617709385,0.0
0.3391927083333344,0.014200757575757575,0.014304957206222687,0.0
0.3398437500000011,0.014068670576735094,0.014294918401734096,0.0
0.3404947916666678,0.01405883431085044,0.014285048564683614,0.0
0.3411458333333345,0.014171187683284459,0.014275285941279572,0.0
0.34179687500000117,0.014283479960899317,0.01426556761780833,0.0
0.34244791666666785,0.014395711143695014,0.014255890317742211,0.0
0.34309895833333454,0.014385691593352883,0.014246249096550432,0.0
0.3437500000000012,0.014497861681329424,0.014236698364104138,0.0
0.3444010416666679,0.014365591397849462,0.014227168689705864,0.0
0.3450520833333346,0.014477761485826001,0.014217772519806129,0.0
0.3457031250000013,0.014345491202346041,0.014208376880747983,0.0
0.34635416666666796,0.01433547165200391,0.014199092583254672,0.0
0.34700520833333465,0.014203262463343108,0.014189847036573418,0.0
0.34765625000000133,0.013948924731182796,0.014180690180630276,0.0
0.348307291666668,0.013939088465298143,0.014171672676319842,0.0
0.3489583333333347,0.013807062561094818,0.014162662863441604,0.0
0.3496093750000014,0.013919477028347997,0.014153713394048285,0.0
0.3502604166666681,0.013787451124144673,0.01414469454811413,0.0
0.35091145833333476,0.013655486314760509,0.014135721634675198,0.0
0.35156250000000144,0.013890151515151515,0.014126788055206448,0.0
0.35221354166666813,0.014002504887585532,0.014117703776551313,0.0
0.3528645833333348,0.014359176441837731,0.01410852255664927,0.0
0.3535156250000015,0.014226906158357772,0.014099113929032304,0.0
0.3541666666666682,0.014339076246334312,0.01408971288623156,0.0
0.35481770833333487,0.01420680596285435,0.014080186803381023,0.0
0.35546875000000155,0.014196786412512218,0.014070646662960306,0.0
0.35611979166666824,0.014186766862170089,0.014061019821611705,0.0
0.3567708333333349,0.013810178396871944,0.01405129489907835,0.0
0.3574218750000016,0.013922531769305961,0.01404164447987341,0.0
0.3580729166666683,0.013912634408602152,0.0140318146045552,0.0
0.358723958333335,0.013902737047898338,0.014021858221752831,0.0
0.35937500000000167,0.013770650048875854,0.01401176879888257,0.0
0.36002604166666835,0.013760813782991203,0.014001602575046769,0.0
0.36067708333333504,0.01375097751710655,0.013991295238245298,0.0
0.3613281250000017,0.013618951612903225,0.013980845076231454,0.0
0.3619791666666684,0.013853555718475073,0.013970312758744226,0.0
0.3626302083333351,0.01372146871945259,0.013959515584662477,0.0
0.3632812500000018,0.013833822091886609,0.013948638126687124,0.0
0.36393229166666846,0.013823924731182796,0.013937559901327968,0.0
0.36458333333333515,0.013936217008797654,0.013926343890477933,0.0
0.36523437500000183,0.013926258553274683,0.013914930904278706,0.0
0.3658854166666685,0.01391630009775171,0.013903383889070555,0.0
0.3665364583333352,0.014028531280547409,0.013891704670963189,0.0
0.3671875000000019,0.014018511730205279,0.013879834078313677,0.0
0.3678385416666686,0.014008492179863146,0.013867835432578277,0.0
0.36848958333333526,0.013876282991202346,0.013855711539673302,0.0
0.36914062500000194,0.013744134897360705,0.013843527195667069,0.0
0.36979166666666863,0.013734237536656892,0.013831287303076204,0.0
0.3704427083333353,0.013357771260997069,0.013818937105549843,0.0
0.371093750000002,0.013470246823069403,0.013806667768602728,0.0
0.3717447916666687,0.01321609237536657,0.01379424427045645,0.0
0.37239583333333537,0.013328629032258064,0.013781860468192164,0.0
0.37304687500000205,0.01331891495601173,0.013769344419264716,0.0
0.37369791666666874,0.013309200879765396,0.013756768743904626,0.0
0.3743489583333354,0.013421676441837734,0.013744144491384768,0.0
0.3750000000000021,0.013534090909090909,0.013731420479299917,0.0
0.3756510416666688,0.013768633919843596,0.013718604893721552,0.0
0.3763020833333355,0.013758675464320625,0.013705642654772091,0.0
0.37695312500000216,0.013870906647116325,0.013692659562010514,0.0
0.37760416666666885,0.013738697458455523,0.013679595738767258,0.0
0.37825520833333554,0.01385092864125122,0.013666572452403256,0.0
0.3789062500000022,0.01371871945259042,0.013653464893390019,0.0
0.3795572916666689,0.013464381720430107,0.013640391502270291,0.0
0.3802083333333356,0.013454545454545453,0.013627409112279835,0.0
0.3808593750000023,0.013322519550342131,0.01361439133742259,0.0
0.38151041666666896,0.01343493401759531,0.013601395603328145,0.0
0.38216145833333565,0.013180718475073313,0.013588296885090083,0.0
0.38281250000000233,0.01304881476050831,0.013575276613453854,0.0
0.383463541666669,0.013161351417399804,0.013562272813649714,0.0
0.3841145833333357,0.013273826979472141,0.013549163229617892,0.0
0.3847656250000024,0.013386241446725317,0.013535948324839824,0.0
0.38541666666666907,0.013376405180840665,0.013522628756377915,0.0
0.38606770833333576,0.013488758553274683,0.013509266165262863,0.0
0.38671875000000244,0.0133566715542522,0.013495799680116237,0.0
0.3873697916666691,0.013469024926686217,0.01348235129518638,0.0
0.3880208333333358,0.013581317204301075,0.013468798222503226,0.0
0.3886718750000025,0.013449169110459434,0.013455139576360164,0.0
0.3893229166666692,0.013561461388074292,0.013441496579708959,0.0
0.38997395833333587,0.013429313294232649,0.013427746278966441,0.0
0.39062500000000255,0.013541605571847509,0.013414010636934176,0.0
0.39127604166666924,0.013409457478005865,0.013400168126992762,0.0
0.3919270833333359,0.013277370478983381,0.013386342832366989,0.0
0.3925781250000026,0.013267534213098729,0.013372538172924808,0.0
0.3932291666666693,0.013013318670576736,0.013358698210060754,0.0
0.393880208333336,0.013003604594330403,0.013344952108324206,0.0
0.39453125000000266,0.012871700879765396,0.01333118639291544,0.0
0.39518229166666935,0.012984237536656892,0.013317472358094152,0.0
0.39583333333333603,0.012974523460410559,0.013303699079528873,0.0
0.3964843750000027,0.012964809384164224,0.013289939446784757,0.0
0.3971354166666694,0.01307728494623656,0.013276205194096353,0.0
0.3977864583333361,0.013311889051808407,0.013262446321965493,0.0
0.3984375000000028,0.013424181329423265,0.013248611690513883,0.0
0.39908854166666946,0.013414222873900292,0.013234770855627093,0.0
0.39973958333333615,0.013404264418377321,0.01322099173128368,0.0
0.40039062500000283,0.013516495601173021,0.013207279567407453,0.0
0.4010416666666695,0.01350647605083089,0.013193577215816696,0.0
0.4016927083333362,0.013374266862170088,0.013179948829851124,0.0
0.4023437500000029,0.012997739491691106,0.01316645818702853,0.0
0.40299479166666957,0.01298796432062561,0.013153230315572402,0.0
0.40364583333333626,0.012855999511241448,0.013140085371864792,0.0
0.40429687500000294,0.012846285434995114,0.013127088762177658,0.0
0.4049479166666696,0.012836571358748779,0.013114184623763377,0.0
0.4055989583333363,0.012826857282502446,0.013101378954570192,0.0
0.406250000000003,0.012817143206256109,0.013088678203427422,0.0
0.4069010416666697,0.013051808406647117,0.013076088851527248,0.0
0.40755208333333637,0.013041972140762463,0.013063494764409909,0.0
0.40820312500000305,0.013032135874877811,0.013051023332835433,0.0
0.40885416666666974,0.013144489247311828,0.013038678567649195,0.0
0.4095052083333364,0.013134591886608017,0.013026401984376414,0.0
0.4101562500000031,0.013369073802541544,0.013014255814009595,0.0
0.4108072916666698,0.013359054252199415,0.013002117597932053,0.0
0.4114583333333365,0.013104655425219942,0.01299010807001337,0.0
0.41210937500000316,0.0132169477028348,0.012978347131316665,0.0
0.41276041666666985,0.013084799608993159,0.012966648814615922,0.0
0.41341145833333653,0.012952712609970675,0.012955132684427573,0.0
0.4140625000000032,0.012942876344086023,0.012943796575817483,0.0
0.4147135416666699,0.012810850439882698,0.012932577994857943,0.0
0.4153645833333366,0.012678885630498533,0.01292153757680319,0.0
0.4160156250000033,0.01279136119257087,0.012910675822771438,0.0
0.41666666666666996,0.012781586021505377,0.012899871871637774,0.0
0.41731770833333665,0.012771810850439883,0.01288918871083309,0.0
0.41796875000000333,0.012762035679374388,0.01287862845123924,0.0
0.41861979166667,0.012630070869990226,0.012868193041796025,0.0
0.4192708333333367,0.012742546432062563,0.012857944979243889,0.0
0.4199218750000034,0.012854960899315739,0.012847762554248151,0.0
0.42057291666667007,0.012967314271749755,0.01283764498420177,0.0
0.42122395833333676,0.013201796187683284,0.01282758996096423,0.0
0.42187500000000344,0.013069586999022484,0.012817532431429208,0.0
0.4225260416666701,0.01318181818181818,0.012807650130692147,0.0
0.4231770833333368,0.01317179863147605,0.012797813979694242,0.0
0.4238281250000035,0.01303958944281525,0.01278807725626535,0.0
0.4244791666666702,0.012907441348973607,0.012778492830519954,0.0
0.42513020833333687,0.012897543988269795,0.01276905262765652,0.0
0.42578125000000355,0.012765456989247312,0.012759688146664616,0.0
0.42643229166667024,0.012755620723362657,0.01275045416061307,0.0
0.4270833333333369,0.012745784457478006,0.012741284613464098,0.0
0.4277343750000036,0.012491568914956012,0.012732176028937545,0.0
0.4283854166666703,0.012481854838709679,0.012723248577801828,0.0
0.429036458333337,0.012594330400782013,0.012714379329573106,0.0
0.42968750000000366,0.012828934506353862,0.012705507406641043,0.0
0.43033854166667035,0.012941226783968718,0.012696572480379701,0.0
0.43098958333333703,0.012931268328445749,0.012687636556617636,0.0
0.4316406250000037,0.012921309872922775,0.012678761479935621,0.0
0.4322916666666704,0.012911351417399804,0.012669947678075222,0.0
0.4329427083333371,0.013023582600195503,0.012661195236647408,0.0
0.4335937500000038,0.012891373411534702,0.012652442896243213,0.0
0.43424479166667046,0.01263703567937439,0.012643812603820106,0.0
0.43489583333333715,0.012871578690127077,0.012635365343718676,0.0
0.43554687500000383,0.012739430596285435,0.012626856953472796,0.0
0.4361979166666705,0.012729533235581621,0.012618471403017015,0.0
0.4368489583333372,0.01259744623655914,0.012610148830488064,0.0
0.4375000000000039,0.012465420332355818,0.012601952124906614,0.0
0.43815104166667057,0.012455645161290323,0.012593883574263961,0.0
0.43880208333333726,0.01244586999022483,0.012585884695785346,0.0
0.43945312500000394,0.012558284457478006,0.012577958150164516,0.0
0.4401041666666706,0.012548448191593353,0.012570045198298744,0.0
0.4407552083333373,0.012416422287390028,0.012562208603928354,0.0
0.441406250000004,0.012406647116324537,0.01255451007918265,0.0
0.4420572916666707,0.012519061583577714,0.01254688776676146,0.0
0.44270833333333737,0.01263141495601173,0.012539278143133476,0.0
0.44335937500000405,0.012743707233626589,0.01253167688942337,0.0
0.44401041666667074,0.012855938416422286,0.012524077679271065,0.0
0.4446614583333374,0.012845918866080157,0.01251647221564318,0.0
0.4453125000000041,0.012835899315738026,0.012508911542472278,0.0
0.4459635416666708,0.012703690127077224,0.01250138424259978,0.0
0.4466145833333375,0.012693731671554253,0.012493939140415779,0.0
0.44726562500000416,0.012561583577712612,0.012486502587430752,0.0
0.44791666666667085,0.012307306940371458,0.012479123395078584,0.0
0.44856770833333753,0.012297531769305963,0.012471851112630812,0.0
0.4492187500000042,0.012165566959921797,0.012464553061583256,0.0
0.4498697916666709,0.012155852883675464,0.01245728103212439,0.0
0.4505208333333376,0.01202394916911046,0.01244996573673513,0.0
0.4511718750000043,0.012136485826001955,0.012442660938285126,0.0
0.45182291666667096,0.012371151026392961,0.012435237587139781,0.0
0.45247395833333764,0.012483504398826978,0.012427627741612143,0.0
0.45312500000000433,0.012595796676441838,0.012419885230462108,0.0
0.453776041666671,0.012585838220918865,0.012412002063045283,0.0
0.4544270833333377,0.012575879765395894,0.012404030504802053,0.0
0.4550781250000044,0.012565921309872923,0.012395960975001383,0.0
0.45572916666667107,0.01255596285434995,0.012387783398651193,0.0
0.45638020833333776,0.01266819403714565,0.012379487584165978,0.0
0.45703125000000444,0.012291605571847507,0.012371002579873416,0.0
0.4576822916666711,0.012403958944281526,0.012362563722159714,0.0
0.4583333333333378,0.012149682306940371,0.012353918852709662,0.0
0.4589843750000045,0.01213990713587488,0.012345245097052504,0.0
0.4596354166666712,0.012130131964809384,0.012336415939897583,0.0
0.46028645833333787,0.01199816715542522,0.01232742893753312,0.0
0.46093750000000455,0.012110642717497556,0.012318344512849378,0.0
0.46158854166667124,0.012100867546432064,0.01230904133311057,0.0
0.4622395833333379,0.01233547165200391,0.012299582546014872,0.0
0.4628906250000046,0.012203384652981427,0.01228984884735033,0.0
0.4635416666666713,0.012193548387096773,0.012280026908871778,0.0
0.464192708333338,0.012183712121212121,0.012270059267159933,0.0
0.46484375000000466,0.01217387585532747,0.012259949616703413,0.0
0.46549479166667135,0.012286229227761486,0.012249701595865883,0.0
0.46614583333333803,0.012276331867057674,0.012239257626189031,0.0
0.4667968750000047,0.012388624144672532,0.012228682190505517,0.0
0.4674479166666714,0.01237866568914956,0.012217917520057749,0.0
0.4680989583333381,0.012368707233626586,0.012207028122069336,0.0
0.4687500000000048,0.012236559139784947,0.01219601772053212,0.0
0.46940104166667146,0.012226661779081133,0.012184951722097392,0.0
0.47005208333333814,0.01209457478005865,0.01217377421386903,0.0
0.47070312500000483,0.011718169599217986,0.01216255257737714,0.0
0.4713541666666715,0.011952895894428153,0.012151416524659075,0.0
0.4720052083333382,0.01194312072336266,0.012140069317983192,0.0
0.4726562500000049,0.011811155913978496,0.012128642910735654,0.0
0.47330729166667157,0.01180144183773216,0.012117208872135412,0.0
0.47395833333333826,0.011791727761485826,0.012105716892534757,0.0
0.47460937500000494,0.011904203323558162,0.012094177617266388,0.0
0.4752604166666716,0.012138807429130009,0.012082539989016454,0.0
0.4759114583333383,0.012251099706744867,0.012070751914285843,0.0
0.476562500000005,0.012241141251221896,0.012058882140991631,0.0
0.4772135416666717,0.012353372434017594,0.012046997939530842,0.0
0.47786458333333837,0.012221163245356794,0.012035042992274666,0.0
0.47851562500000505,0.012333394428152494,0.012023143135621259,0.0
0.47916666666667174,0.01220118523949169,0.01201117910565969,0.0
0.4798177083333384,0.011824657869012708,0.011999275786934493,0.0
0.4804687500000051,0.011814882697947216,0.011987558328337006,0.0
0.4811197916666718,0.011805107526881721,0.011975847076675043,0.0
0.4817708333333385,0.011795332355816226,0.011964146577135456,0.0
0.48242187500000516,0.011663367546432064,0.011952462339576544,0.0
0.48307291666667185,0.011531463831867057,0.011940861813037839,0.0
0.48372395833333853,0.011521810850439884,0.011929351930472502,0.0
0.4843750000000052,0.011634347507331378,0.011917878713719673,0.0
0.4850260416666719,0.011746823069403715,0.011906387870885712,0.0
0.4856770833333386,0.01173704789833822,0.01189488534995251,0.0
0.4863281250000053,0.011849462365591399,0.011883436832417056,0.0
0.48697916666667196,0.011839626099706745,0.011871984045368595,0.0
0.48763020833333864,0.011951979472140764,0.011860588881112764,0.0
0.48828125000000533,0.01181989247311828,0.01184918891919771,0.0
0.488932291666672,0.011932245845552298,0.011837902960510452,0.0
0.4895833333333387,0.011922348484848485,0.011826603562529906,0.0
0.4902343750000054,0.011912451124144673,0.011815345012799265,0.0
0.49088541666667207,0.011902553763440859,0.011804119343503767,0.0
0.49153645833333875,0.011770466764418376,0.011792917877294577,0.0
0.49218750000000544,0.011760630498533724,0.011781792795042701,0.0
0.4928385416666721,0.01150641495601173,0.011770674301495768,0.0
0.4934895833333388,0.011374511241446726,0.011759676475451779,0.0
0.4941406250000055,0.011487047898338222,0.011748730950524056,0.0
0.4947916666666722,0.011355144183773216,0.011737709190605974,0.0
0.49544270833333887,0.01146768084066471,0.011726727885229202,0.0
0.49609375000000555,0.011457966764418378,0.011715659984528216,0.0
0.49674479166667224,0.011448252688172043,0.011704562082219618,0.0
0.4973958333333389,0.01143853861192571,0.011693429732785225,0.0
0.4980468750000056,0.011673203812316716,0.011682258260887595,0.0
0.4986979166666723,0.011907746823069405,0.011670920341310061,0.0
0.499348958333339,0.011653409090909091,0.011659410251412674,0.0
0.5000000000000057,0.01188795210166178,0.011647966087515988,0.0
0.5006510416666723,0.011877993646138807,0.01163633682442583,0.0
0.5013020833333389,0.011868035190615838,0.011624637990008901,0.0
0.5019531250000056,0.011735887096774193,0.011612863368629196,0.0
0.5026041666666722,0.01148161045943304,0.01160106881707,0.0
0.5032552083333388,0.011471835288367547,0.011589311699515601,0.0
0.5039062500000054,0.011339870478983383,0.011577468042981603,0.0
0.5045572916666721,0.011330156402737048,0.01156559938359008,0.0
0.5052083333333387,0.011198252688172044,0.011553647373738733,0.0
0.5058593750000053,0.011188599706744868,0.011541678047332377,0.0
0.506510416666672,0.011178946725317693,0.011529637149825992,0.0
0.5071614583333386,0.01141367302052786,0.011517532987886353,0.0
0.5078125000000052,0.011526087487781039,0.011505252621562736,0.0
0.5084635416666718,0.011516251221896383,0.011492866808953662,0.0
0.5091145833333385,0.011628604594330402,0.011480446274057464,0.0
0.5097656250000051,0.01161870723362659,0.011467939210557783,0.0
0.5104166666666717,0.011730999511241447,0.011455415516117624,0.0
0.5110677083333384,0.011598851417399804,0.01144282242442974,0.0
0.511718750000005,0.01146676441837732,0.011430290124693293,0.0
0.5123697916666716,0.011579117790811338,0.011417826523160689,0.0
0.5130208333333383,0.011447030791788855,0.01140531751006905,0.0
0.5136718750000049,0.011559384164222874,0.01139289377700575,0.0
0.5143229166666715,0.011305107526881719,0.011380442262119103,0.0
0.5149739583333381,0.011295332355816227,0.011368156147448119,0.0
0.5156250000000048,0.011163367546432061,0.011355923972913951,0.0
0.5162760416666714,0.01115365347018573,0.011343818347019457,0.0
0.516927083333338,0.011266129032258064,0.011331790297830846,0.0
0.5175781250000047,0.011134164222873902,0.011319791171076139,0.0
0.5182291666666713,0.011246639784946236,0.011307955542528295,0.0
0.5188802083333379,0.011114674975562074,0.011296173145353864,0.0
0.5195312500000046,0.011227150537634407,0.011284577217261229,0.0
0.5201822916666712,0.011217375366568916,0.01127305535248218,0.0
0.5208333333333378,0.011329789833822093,0.011261676820595978,0.0
0.5214843750000044,0.01144214320625611,0.011250386820199212,0.0
0.5221354166666711,0.011432245845552295,0.011239189597018287,0.0
0.5227864583333377,0.011544538123167155,0.011228148413354509,0.0
0.5234375000000043,0.011534579667644183,0.011217202383997486,0.0
0.524088541666671,0.011524621212121212,0.011206411122131475,0.0
0.5247395833333376,0.01139247311827957,0.011195771844392763,0.0
0.5253906250000042,0.011138196480938417,0.011185342028092956,0.0
0.5260416666666708,0.011128421309872924,0.01117517879197807,0.0
0.5266927083333375,0.010996456500488758,0.011165156011871966,0.0
0.5273437500000041,0.010986742424242425,0.011155331146122537,0.0
0.5279947916666707,0.01085483870967742,0.011145639844169353,0.0
0.5286458333333374,0.010845185728250245,0.011136140237160247,0.0
0.529296875000004,0.01095772238514174,0.011126768319358184,0.0
0.5299479166666706,0.011192387585532747,0.011117459786350791,0.0
0.5305989583333373,0.011304740957966766,0.011108149639999981,0.0
0.5312500000000039,0.011294843597262951,0.011098894033991627,0.0
0.5319010416666705,0.01128494623655914,0.011089747877051323,0.0
0.5325520833333371,0.011152859237536656,0.011080703705685426,0.0
0.5332031250000038,0.011387402248289347,0.011071813998706324,0.0
0.5338541666666704,0.011377443792766373,0.01106288594340693,0.0
0.534505208333337,0.011245295698924731,0.011054031614043431,0.0
0.5351562500000037,0.011235398338220919,0.011045301795588615,0.0
0.5358072916666703,0.011225500977517105,0.011036625320172857,0.0
0.5364583333333369,0.011093413978494622,0.011027992775530572,0.0
0.5371093750000036,0.011083577712609972,0.0110194568777838,0.0
0.5377604166666702,0.010951551808406648,0.011010949475237727,0.0
0.5384114583333368,0.010941776637341152,0.01100252610527376,0.0
0.5390625000000034,0.010932001466275659,0.010994121665273355,0.0
0.5397135416666701,0.011044415933528836,0.010985733619961713,0.0
0.5403645833333367,0.010912390029325513,0.010977299629941227,0.0
0.5410156250000033,0.010902614858260018,0.010968941681926444,0.0
0.54166666666667,0.010892839687194525,0.010960599235176607,0.0
0.5423177083333366,0.011005254154447702,0.01095227329682919,0.0
0.5429687500000032,0.011117607526881722,0.010943903925060042,0.0
0.5436197916666698,0.011107710166177908,0.010935492141496129,0.0
0.5442708333333365,0.011342192082111437,0.010927099729106689,0.0
0.5449218750000031,0.011209982893450635,0.010918604765243018,0.0
0.5455729166666697,0.011322214076246334,0.010910190428319052,0.0
0.5462239583333364,0.011190004887585533,0.01090173423052086,0.0
0.546875000000003,0.011057856793743891,0.010893358154162416,0.0
0.5475260416666696,0.011047959433040079,0.010885062413762919,0.0
0.5481770833333363,0.010671493157380254,0.010876786862008976,0.0
0.5488281250000029,0.01090615835777126,0.010868716686301459,0.0
0.5494791666666695,0.010651942815249268,0.010860549350285893,0.0
0.5501302083333361,0.010642228739002934,0.01085253311846974,0.0
0.5507812500000028,0.010510325024437927,0.010844550386230369,0.0
0.5514322916666694,0.010500672043010754,0.010836667142947821,0.0
0.552083333333336,0.010735398338220918,0.010828826987483147,0.0
0.5527343750000027,0.010847812805474095,0.010820911636550523,0.0
0.5533854166666693,0.011082355816226783,0.010812984722519266,0.0
0.5540364583333359,0.010950207722385141,0.01080498584565762,0.0
0.5546875000000026,0.0110625,0.01079709686136926,0.0
0.5553385416666692,0.011052541544477028,0.01078919196908664,0.0
0.5559895833333358,0.011042583088954056,0.010781326620234743,0.0
0.5566406250000024,0.011032624633431087,0.010773493455826446,0.0
0.5572916666666691,0.0106560972629521,0.010765683836912666,0.0
0.5579427083333357,0.01076851173020528,0.010758071619150678,0.0
0.5585937500000023,0.010758675464320626,0.01075040267061972,0.0
0.559244791666669,0.010748839198435972,0.010742728388491175,0.0
0.5598958333333356,0.01061681329423265,0.010735039402452127,0.0
0.5605468750000022,0.010484848484848487,0.010727387938808656,0.0
0.5611979166666689,0.010475134408602151,0.01071976570891845,0.0
0.5618489583333355,0.010465420332355816,0.010712103878748673,0.0
0.5625000000000021,0.010700085532746822,0.010704395118611407,0.0
0.5631510416666687,0.010690249266862172,0.010696510102370688,0.0
0.5638020833333354,0.010558223362658846,0.010688563846525159,0.0
0.564453125000002,0.010548448191593352,0.010680610050647242,0.0
0.5651041666666686,0.0107830522971652,0.010672579882351702,0.0
0.5657552083333353,0.010773154936461388,0.01066434301462317,0.0
0.5664062500000019,0.010641067937438905,0.010656013113959646,0.0
0.5670572916666685,0.010875610948191596,0.010647642469972298,0.0
0.5677083333333351,0.010865652492668621,0.010639038906908364,0.0
0.5683593750000018,0.01085569403714565,0.010630315916587424,0.0
0.5690104166666684,0.010723545943304009,0.010621465349997737,0.0
0.569661458333335,0.010591458944281524,0.01061254111097496,0.0
0.5703125000000017,0.010581622678396872,0.010603537378770874,0.0
0.5709635416666683,0.01032740713587488,0.010594388957183955,0.0
0.5716145833333349,0.010317693059628544,0.010585215881896077,0.0
0.5722656250000016,0.010307978983382208,0.010575895823892447,0.0
0.5729166666666682,0.010298264907135877,0.010566430549482045,0.0
0.5735677083333348,0.010166361192570871,0.010556823461546941,0.0
0.5742187500000014,0.010278897849462367,0.010547140302546023,0.0
0.5748697916666681,0.010391373411534703,0.010537264302905709,0.0
0.5755208333333347,0.01062597751710655,0.010527201152777556,0.0
0.5761718750000013,0.010738269794721407,0.010516895258025478,0.0
0.576822916666668,0.010728311339198437,0.010506412694041534,0.0
0.5774739583333346,0.010718352883675465,0.010495818879692665,0.0
0.5781250000000012,0.010708394428152494,0.010485117555503196,0.0
0.5787760416666679,0.010576246334310853,0.010474312125932446,0.0
0.5794270833333345,0.010688538611925709,0.01046346711436003,0.0
0.5800781250000011,0.010312011241446725,0.010452464190008672,0.0
0.5807291666666677,0.010424425708699902,0.010441552410212501,0.0
0.5813802083333344,0.01029239980449658,0.01043049320464191,0.0
0.582031250000001,0.010282624633431086,0.010419415889980773,0.0
0.5826822916666676,0.01015065982404692,0.010408267858568609,0.0
0.5833333333333343,0.010140945747800587,0.010397119950949408,0.0
0.5839843750000009,0.010131231671554252,0.01038592184161382,0.0
0.5846354166666675,0.010243707233626586,0.01037468497353386,0.0
0.5852864583333341,0.010478311339198436,0.010363359942207754,0.0
0.5859375000000008,0.010346224340175953,0.01035189715206414,0.0
0.5865885416666674,0.010458577712609971,0.01034049081927272,0.0
0.587239583333334,0.010326490713587488,0.010329028854859605,0.0
0.5878906250000007,0.010438844086021505,0.010317642576833319,0.0
0.5885416666666673,0.010428946725317693,0.010306217914506546,0.0
0.5891927083333339,0.01029685972629521,0.01029482311703201,0.0
0.5898437500000006,0.010409213098729228,0.010283525575945451,0.0
0.5904947916666672,0.010277126099706746,0.010272208686813512,0.0
0.5911458333333338,0.010389479472140762,0.01026099967391415,0.0
0.5917968750000004,0.010257392473118281,0.010249780990167401,0.0
0.5924479166666671,0.010125366568914957,0.010238679220153195,0.0
0.5930989583333337,0.010115591397849462,0.010227698624612848,0.0
0.5937500000000003,0.009861436950146628,0.010216782289083444,0.0
0.594401041666667,0.009973973607038123,0.010206056465142664,0.0
0.5950520833333336,0.009842069892473118,0.010195341660595944,0.0
0.5957031250000002,0.009832416911045944,0.010184763323758025,0.0
0.5963541666666669,0.009822763929618767,0.010174262729990214,0.0
0.5970052083333335,0.009935300586510265,0.010163840948958655,0.0
0.5976562500000001,0.00992558651026393,0.010153436227602959,0.0
0.5983072916666667,0.010160251710654936,0.01014310688387407,0.0
0.5989583333333334,0.010394794721407625,0.010132725539149207,0.0
0.599609375,0.010262646627565982,0.01012228446098481,0.0
0.6002604166666666,0.01037493890518084,0.010111956743130208,0.0
0.6009114583333333,0.01036498044965787,0.010101607864743758,0.0
0.6015624999999999,0.010355021994134898,0.010091284968847114,0.0
0.6022135416666665,0.010345063538611927,0.010080973150618408,0.0
0.6028645833333331,0.009846346529814271,0.010070657305016164,0.0
0.6035156249999998,0.009958822091886609,0.010060567264265165,0.0
0.6041666666666664,0.009826857282502443,0.010050384229006693,0.0
0.604817708333333,0.00981714320625611,0.010040218767999208,0.0
0.6054687499999997,0.009685239491691106,0.010030000135034764,0.0
0.6061197916666663,0.009675586510263932,0.01001978179876148,0.0
0.6067708333333329,0.009665933528836754,0.010009496933774379,0.0
0.6074218749999996,0.009900659824046922,0.00999914142236291,0.0
0.6080729166666662,0.010013074291300097,0.009988590188518949,0.0
0.6087239583333328,0.010003238025415445,0.009977902272969344,0.0
0.6093749999999994,0.010115591397849462,0.009967137219069949,0.0
0.6100260416666661,0.00998350439882698,0.009956232680512525,0.0
0.6106770833333327,0.010218047409579666,0.009945309834606186,0.0
0.6113281249999993,0.010085899315738025,0.00993418469173914,0.0
0.611979166666666,0.009953812316715542,0.009923040313030804,0.0
0.6126302083333326,0.01006616568914956,0.009911877206885845,0.0
0.6132812499999992,0.009934078690127078,0.009900574703540456,0.0
0.6139322916666659,0.009924242424242424,0.009889257787297198,0.0
0.6145833333333325,0.009792216520039101,0.009877869646513446,0.0
0.6152343749999991,0.009782441348973608,0.009866477286365844,0.0
0.6158854166666657,0.009650476539589442,0.009855027189222241,0.0
0.6165364583333324,0.009640762463343111,0.009843589616803292,0.0
0.617187499999999,0.009631048387096774,0.009832114030952637,0.0
0.6178385416666656,0.00962133431085044,0.009820612063877686,0.0
0.6184895833333323,0.009611620234604107,0.009809096019513092,0.0
0.6191406249999989,0.009601906158357772,0.009797578415128043,0.0
0.6197916666666655,0.009592192082111437,0.009786071503501328,0.0
0.6204427083333321,0.009704667644183772,0.009774586806052532,0.0
0.6210937499999988,0.00981708211143695,0.009763073592059942,0.0
0.6217447916666654,0.010051625122189638,0.009751540722370429,0.0
0.622395833333332,0.009919477028347995,0.009739934244590654,0.0
0.6230468749999987,0.010031769305962853,0.009728442827853635,0.0
0.6236979166666653,0.010021810850439882,0.009716948059175032,0.0
0.6243489583333319,0.01001185239491691,0.009705513516683424,0.0
0.6249999999999986,0.0097575146627566,0.009694140825066826,0.0
0.6256510416666652,0.009503299120234603,0.009682953433553054,0.0
0.6263020833333318,0.009493585043988268,0.009671952702895583,0.0
0.6269531249999984,0.009361681329423265,0.009661018246947102,0.0
0.6276041666666651,0.00947421798631476,0.009650213555700445,0.0
0.6282552083333317,0.009342314271749757,0.009639419371130886,0.0
0.6289062499999983,0.009332661290322581,0.00962876112493081,0.0
0.629557291666665,0.009445197947214075,0.009618180927241628,0.0
0.6302083333333316,0.009679863147605083,0.009607620433689972,0.0
0.6308593749999982,0.0097922165200391,0.009597020423412676,0.0
0.6315104166666649,0.009660129521016619,0.009586442646071953,0.0
0.6321614583333315,0.009772482893450634,0.009576008535112847,0.0
0.6328124999999981,0.009762585532746823,0.009565593715962585,0.0
0.6334635416666647,0.00987487781036168,0.009555255807937589,0.0
0.6341145833333314,0.00986491935483871,0.009544929217162244,0.0
0.634765624999998,0.009610581622678397,0.009534669889216982,0.0
0.6354166666666646,0.009600745356793743,0.009524594659614994,0.0
0.6360677083333313,0.00946871945259042,0.009514576235434719,0.0
0.6367187499999979,0.0095811339198436,0.009504671252792255,0.0
0.6373697916666645,0.009326918377321603,0.009494753989515069,0.0
0.6380208333333311,0.0091950146627566,0.009485005273981648,0.0
0.6386718749999978,0.009307551319648093,0.009475362641147948,0.0
0.6393229166666644,0.009297837243401759,0.0094657034773409,0.0
0.639973958333331,0.009288123167155425,0.009456089125075014,0.0
0.6406249999999977,0.009278409090909092,0.009446520139872863,0.0
0.6412760416666643,0.009390884652981428,0.009436996985667781,0.0
0.6419270833333309,0.009258919843597264,0.00942745854869893,0.0
0.6425781249999976,0.0093713954056696,0.009418026167113585,0.0
0.6432291666666642,0.009483809872922777,0.009408575683415401,0.0
0.6438802083333308,0.009718352883675464,0.009399103817603381,0.0
0.6445312499999974,0.009830584066471163,0.009389544810492983,0.0
0.6451822916666641,0.009698374877810362,0.009379953807254985,0.0
0.6458333333333307,0.009810606060606061,0.009370446061790603,0.0
0.6464843749999973,0.00967839687194526,0.0093608919436645,0.0
0.647135416666664,0.009546248778103616,0.009351406299701161,0.0
0.6477864583333306,0.009414161779081134,0.009341982530667002,0.0
0.6484374999999972,0.00915994623655914,0.009332615381087594,0.0
0.6490885416666639,0.009272421798631476,0.009323362501131905,0.0
0.6497395833333305,0.009140456989247312,0.009314039239750709,0.0
0.6503906249999971,0.009008553274682307,0.009304768540538567,0.0
0.6510416666666637,0.008998900293255133,0.009295553107526706,0.0
0.6516927083333304,0.009111436950146629,0.009286336143393753,0.0
0.652343749999997,0.009223912512218964,0.009277061940547445,0.0
0.6529947916666636,0.009336326979472143,0.009267736391608212,0.0
0.6536458333333303,0.009570869990224828,0.009258365320981067,0.0
0.6542968749999969,0.009560911534701858,0.009248892920574226,0.0
0.6549479166666635,0.009550953079178885,0.00923944583637899,0.0
0.6555989583333302,0.009540994623655914,0.009230027610467616,0.0
0.6562499999999968,0.009653225806451612,0.00922064098008968,0.0
0.6569010416666634,0.00952101661779081,0.00921122704162251,0.0
0.65755208333333,0.009144489247311828,0.009201909986817542,0.0
0.6582031249999967,0.009256903714565005,0.009192814208436857,0.0
0.6588541666666633,0.009124877810361682,0.00918369806864638,0.0
0.6595052083333299,0.009115102639296187,0.009174687246227737,0.0
0.6601562499999966,0.009105327468230694,0.009165724935037754,0.0
0.6608072916666632,0.00897336265884653,0.009156816127510407,0.0
0.6614583333333298,0.008963648582600195,0.009148027394205562,0.0
0.6621093749999964,0.008953934506353864,0.009139303275711053,0.0
0.6627604166666631,0.00918859970674487,0.009130649163650683,0.0
0.6634114583333297,0.009056573802541544,0.00912194757279629,0.0
0.6640624999999963,0.009168988269794722,0.009113385379483434,0.0
0.664713541666663,0.009036962365591398,0.009104842519378709,0.0
0.6653645833333296,0.009271566471163247,0.009096441584574146,0.0
0.6660156249999962,0.009261669110459433,0.00908799781903222,0.0
0.6666666666666629,0.00912958211143695,0.009079630028482739,0.0
0.6673177083333295,0.009241935483870967,0.009071394091837923,0.0
0.6679687499999961,0.009232038123167155,0.009063160958411498,0.0
0.6686197916666627,0.009344330400782013,0.009054983485521518,0.0
0.6692708333333294,0.009212182306940372,0.009046791298267113,0.0
0.669921874999996,0.00920228494623656,0.009038696652678136,0.0
0.6705729166666626,0.009070197947214077,0.009030628289265843,0.0
0.6712239583333293,0.008815982404692084,0.009022637320327877,0.0
0.6718749999999959,0.009050647605083088,0.00901477538854852,0.0
0.6725260416666625,0.008796432062561097,0.00900678942706752,0.0
0.6731770833333292,0.008786717986314762,0.00899891599096048,0.0
0.6738281249999958,0.008777003910068427,0.008991025898763754,0.0
0.6744791666666624,0.008767289833822092,0.008983112844498363,0.0
0.675130208333329,0.008879765395894428,0.008975170967371457,0.0
0.6757812499999957,0.008992179863147603,0.008967133461538903,0.0
0.6764322916666623,0.009226722873900294,0.008958994474133815,0.0
0.6770833333333289,0.009216764418377323,0.008950686699005693,0.0
0.6777343749999956,0.009328995601173019,0.008942325681753467,0.0
0.6783854166666622,0.009196786412512217,0.00893384335821827,0.0
0.6790364583333288,0.009186827956989246,0.008925354906574262,0.0
0.6796874999999954,0.009176869501466277,0.008916792590875309,0.0
0.6803385416666621,0.008800342130987293,0.008908150613523652,0.0
0.6809895833333287,0.008912756598240468,0.008899607762987755,0.0
0.6816406249999953,0.008780730694037146,0.008890916832754179,0.0
0.682291666666662,0.008770955522971653,0.00888219907244242,0.0
0.6829427083333286,0.008638990713587489,0.00887339438283302,0.0
0.6835937499999952,0.008629276637341156,0.008864566675320665,0.0
0.6842447916666619,0.008619562561094817,0.008855659230794791,0.0
0.6848958333333285,0.008732038123167155,0.008846677598449773,0.0
0.6855468749999951,0.008844452590420333,0.008837566938065176,0.0
0.6861979166666617,0.00883461632453568,0.008828333721456784,0.0
0.6868489583333284,0.008824780058651026,0.008819045292018504,0.0
0.687499999999995,0.008937133431085046,0.008809707331410422,0.0
0.6881510416666616,0.008927236070381232,0.008800263633179355,0.0
0.6888020833333283,0.008917338709677421,0.008790779281901367,0.0
0.6894531249999949,0.008907441348973607,0.008781257380267764,0.0
0.6901041666666615,0.009019733626588465,0.008771700257595185,0.0
0.6907552083333282,0.008887585532746822,0.008762048569168287,0.0
0.6914062499999948,0.008877688172043012,0.00875242592867521,0.0
0.6920572916666614,0.0088677908113392,0.00874277262632815,0.0
0.692708333333328,0.008735703812316717,0.008733090295971408,0.0
0.6933593749999947,0.008725867546432065,0.008723442168796228,0.0
0.6940104166666613,0.008349462365591398,0.008713769975767817,0.0
0.6946614583333279,0.008584188660801566,0.008704260600613654,0.0
0.6953124999999946,0.00833003421309873,0.008694612888876482,0.0
0.6959635416666612,0.008442570869990226,0.008685076056823107,0.0
0.6966145833333278,0.008310667155425222,0.008675471839842719,0.0
0.6972656249999944,0.008423203812316715,0.008665927200656188,0.0
0.6979166666666611,0.00865786901270772,0.00865632399534626,0.0
0.6985677083333277,0.008770222385141739,0.008646603975734753,0.0
0.6992187499999943,0.008882514662756599,0.008636829502216834,0.0
0.699869791666661,0.008750366568914956,0.008627000047396858,0.0
0.7005208333333276,0.008862658846529814,0.008617235481026215,0.0
0.7011718749999942,0.008852700391006841,0.008607409703173544,0.0
0.7018229166666609,0.00884274193548387,0.008597578669130104,0.0
0.7024739583333275,0.008710593841642229,0.008587736483056814,0.0
0.7031249999999941,0.008334127565982405,0.0085779381198597,0.0
0.7037760416666607,0.00844660312805474,0.008568299943230462,0.0
0.7044270833333274,0.008314638318670579,0.008558572457076882,0.0
0.705078124999994,0.008182734604105572,0.00854887368885636,0.0
0.7057291666666606,0.008173081622678397,0.008539200485230857,0.0
0.7063802083333273,0.008163428641251224,0.008529489479331692,0.0
0.7070312499999939,0.008031586021505376,0.008519738994945854,0.0
0.7076822916666605,0.008388563049853371,0.008510008641016571,0.0
0.7083333333333272,0.008500977517106548,0.008500052274705695,0.0
0.7089843749999938,0.008491141251221896,0.008489989596735774,0.0
0.7096354166666604,0.008603494623655913,0.008479878153862742,0.0
0.710286458333327,0.008471407624633432,0.008469652088094153,0.0
0.7109374999999937,0.00870595063538612,0.00845942764491708,0.0
0.7115885416666603,0.008573802541544478,0.008449014617346437,0.0
0.7122395833333269,0.008441715542521995,0.008438588728428833,0.0
0.7128906249999936,0.008554068914956012,0.008428142214465792,0.0
0.7135416666666602,0.008421981915933527,0.008417545400489614,0.0
0.7141927083333268,0.008534335288367546,0.008406913742043826,0.0
0.7148437499999934,0.008157869012707722,0.008396119496775439,0.0
0.7154947916666601,0.008148154936461389,0.008385403030766896,0.0
0.7161458333333267,0.008138440860215052,0.008374578830859548,0.0
0.7167968749999933,0.00800653714565005,0.008363646542560685,0.0
0.71744791666666,0.007996884164222872,0.008352668698758737,0.0
0.7180989583333266,0.00810942082111437,0.008341587197205416,0.0
0.7187499999999932,0.008099706744868033,0.008330345130900604,0.0
0.7194010416666599,0.0080899926686217,0.008319008548904957,0.0
0.7200520833333265,0.008202468230694038,0.008307582731721549,0.0
0.7207031249999931,0.008192693059628544,0.008296011788557696,0.0
0.7213541666666597,0.008305107526881721,0.00828436161264405,0.0
0.7220052083333264,0.008417460899315738,0.008272575275997139,0.0
0.722656249999993,0.008407563538611926,0.008260656216319115,0.0
0.7233072916666596,0.008519855816226782,0.008248668285538848,0.0
0.7239583333333263,0.008509897360703813,0.008236552664057905,0.0
0.7246093749999929,0.008499938905180842,0.008224372575506915,0.0
0.7252604166666595,0.008367790811339199,0.008212130444558695,0.0
0.7259114583333262,0.007991324535679375,0.008199890584918965,0.0
0.7265624999999928,0.00810380009775171,0.008187779675497005,0.0
0.7272135416666594,0.007849645650048875,0.008175559456597224,0.0
0.727864583333326,0.007962182306940372,0.008163421132773272,0.0
0.7285156249999927,0.007830278592375367,0.008151191095340437,0.0
0.7291666666666593,0.007820625610948193,0.008139002722784188,0.0
0.7298177083333259,0.007933162267839688,0.008126807220808734,0.0
0.7304687499999926,0.008167827468230695,0.008114556398435828,0.0
0.7311197916666592,0.00828018084066471,0.008102202124691822,0.0
0.7317708333333258,0.008148093841642232,0.008089818031188568,0.0
0.7324218749999925,0.008260447214076247,0.008077538064549578,0.0
0.7330729166666591,0.008250549853372433,0.008065250823355956,0.0
0.7337239583333257,0.008362842130987291,0.008053027183555246,0.0
0.7343749999999923,0.008230694037145651,0.008040814913165514,0.0
0.735026041666659,0.008098607038123167,0.008028744338575406,0.0
0.7356770833333256,0.008088770772238513,0.008016823127450041,0.0
0.7363281249999922,0.00795674486803519,0.008004997646780618,0.0
0.7369791666666589,0.007946969696969697,0.007993336457839803,0.0
0.7376302083333255,0.007937194525904204,0.007981786055539427,0.0
0.7382812499999921,0.007683040078201369,0.007970354163539958,0.0
0.7389322916666587,0.0077955767350928636,0.007959170728579656,0.0
0.7395833333333254,0.007785862658846532,0.007948060046137649,0.0
0.740234374999992,0.007776148582600196,0.007937090305571097,0.0
0.7408854166666586,0.007766434506353861,0.007926267743984583,0.0
0.7415364583333253,0.007878910068426196,0.00791559735004647,0.0
0.7421874999999919,0.007746945259042034,0.007905021399610402,0.0
0.7428385416666585,0.007859420821114372,0.007894663518511726,0.0
0.7434895833333252,0.007849645650048875,0.007884400777122956,0.0
0.7441406249999918,0.007962060117302053,0.007874291200344526,0.0
0.7447916666666584,0.008196603128054742,0.007864268242916734,0.0
0.745442708333325,0.008064455034213098,0.007854263056760909,0.0
0.7460937499999917,0.008176747311827957,0.007844449102614356,0.0
0.7467447916666583,0.008044599217986313,0.007834692688374658,0.0
0.7473958333333249,0.008034701857282504,0.007825103343020801,0.0
0.7480468749999916,0.007902614858260019,0.007815606745963826,0.0
0.7486979166666582,0.0076483993157380244,0.0078062507997024725,0.0
0.7493489583333248,0.007638685239491691,0.007797083972026137,0.0
0.7499999999999915,0.007506781524926686,0.007787972406312974,0.0
0.7506510416666581,0.007619318181818184,0.007778966699126036,0.0
0.7513020833333247,0.007487414467253177,0.007769935345722063,0.0
0.7519531249999913,0.007477761485826,0.007760992253113198,0.0
0.752604166666658,0.007590298142717498,0.00775206880494437,0.0
0.7532552083333246,0.007947152981427175,0.007743096802545259,0.0
0.7539062499999912,0.008059445259042031,0.00773394702318963,0.0
0.7545572916666579,0.007927297165200391,0.007724734438951838,0.0
0.7552083333333245,0.008039589442815248,0.007715573757125089,0.0
0.7558593749999911,0.008029630987292279,0.007706335159229418,0.0
0.7565104166666577,0.008141862170087975,0.007697072250675686,0.0
0.7571614583333244,0.007887463343108504,0.007687716994607924,0.0
0.757812499999991,0.007633186705767353,0.007678446762156212,0.0
0.7584635416666576,0.007745601173020526,0.007669257152512116,0.0
0.7591145833333243,0.007735764907135874,0.0076599623910839154,0.0
0.7597656249999909,0.007725928641251222,0.00765062324553613,0.0
0.7604166666666575,0.007593902737047898,0.007641241652386886,0.0
0.7610677083333242,0.007584127565982406,0.007631882877394797,0.0
0.7617187499999908,0.007574352394916911,0.007622492086302831,0.0
0.7623697916666574,0.0075645772238514195,0.0076130773761973565,0.0
0.763020833333324,0.007676991691104595,0.007603648336378394,0.0
0.7636718749999907,0.0075449657869012705,0.007594154550575522,0.0
0.7643229166666573,0.007657380254154448,0.007584729553166943,0.0
0.7649739583333239,0.007647543988269794,0.00757526275417755,0.0
0.7656249999999906,0.007759897360703812,0.0075658267270430225,0.0
0.7662760416666572,0.00775,0.007556371416815502,0.0
0.7669270833333238,0.007740102639296188,0.007546968283449242,0.0
0.7675781249999905,0.007852394916911046,0.0075376268772307095,0.0
0.7682291666666571,0.007842436461388075,0.007528294795551994,0.0
0.7688802083333237,0.007832478005865102,0.007519041015627987,0.0
0.7695312499999903,0.007700329912023461,0.007509872739712314,0.0
0.770182291666657,0.0076904325513196484,0.007500857771473292,0.0
0.7708333333333236,0.007558345552297164,0.007491941433061721,0.0
0.7714843749999902,0.007304130009775174,0.0074831911106282975,0.0
0.7721354166666569,0.007416605571847508,0.007474674146484786,0.0
0.7727864583333235,0.007284640762463343,0.007466213416285837,0.0
0.7734374999999901,0.00727492668621701,0.007457936997046453,0.0
0.7740885416666567,0.007143022971652004,0.007449789095815256,0.0
0.7747395833333234,0.0072555596285435,0.007441835112703256,0.0
0.77539062499999,0.007368035190615834,0.00743395569025348,0.0
0.7760416666666566,0.007602639296187683,0.007426151694278775,0.0
0.7766927083333233,0.00771493157380254,0.007418360495675183,0.0
0.7773437499999899,0.0077049731182795705,0.007410638970323216,0.0
0.7779947916666565,0.007695014662756598,0.007403041241485537,0.0
0.7786458333333232,0.007685056207233627,0.007395557749706942,0.0
0.7792968749999898,0.007675097751710654,0.007388176711088501,0.0
0.7799479166666564,0.007665139296187683,0.007380884621932277,0.0
0.780598958333323,0.007288611925708699,0.007373666843855333,0.0
0.7812499999999897,0.007401026392961876,0.0073666914881794195,0.0
0.7819010416666563,0.007269000488758552,0.007359699007692151,0.0
0.7825520833333229,0.007259225317693062,0.0073527968459392605,0.0
0.7832031249999896,0.007127260508308895,0.007345909849218711,0.0
0.7838541666666562,0.006995356793743891,0.007339085854473442,0.0
0.7845052083333228,0.007230083088954056,0.007332312373438974,0.0
0.7851562499999895,0.0069759286412512216,0.007325394240072271,0.0
0.7858072916666561,0.0073328445747800584,0.007318564298761928,0.0
0.7864583333333227,0.007323008308895405,0.007311505585481595,0.0
0.7871093749999893,0.007313172043010751,0.007304389662106457,0.0
0.787760416666656,0.007303335777126099,0.007297204380421137,0.0
0.7884114583333226,0.007415689149560117,0.007289937091218161,0.0
0.7890624999999892,0.007405791788856305,0.007282513593344541,0.0
0.7897135416666559,0.007273704789833822,0.007274981570365388,0.0
0.7903645833333225,0.007508247800586511,0.007267388646498793,0.0
0.7910156249999891,0.007376099706744868,0.007259538324009092,0.0
0.7916666666666557,0.007366202346041054,0.007251601297078791,0.0
0.7923177083333224,0.007356304985337243,0.007243504899218615,0.0
0.792968749999989,0.007224217986314759,0.0072352389766067214,0.0
0.7936197916666556,0.007214381720430107,0.007226856255278617,0.0
0.7942708333333223,0.006960166177908112,0.007218289353979855,0.0
0.7949218749999889,0.0070726417399804495,0.007209656448700176,0.0
0.7955729166666555,0.006940676930596286,0.0072007725672278994,0.0
0.7962239583333222,0.006930962854349951,0.007191760441920205,0.0
0.7968749999999888,0.006921248778103616,0.00718256151961823,0.0
0.7975260416666554,0.007033724340175953,0.007173180001130325,0.0
0.798177083333322,0.00714613880742913,0.007163560243373193,0.0
0.7988281249999887,0.007258492179863147,0.007153708528893174,0.0
0.7994791666666553,0.007492974095796676,0.007143631608525212,0.0
0.8001302083333219,0.007360764907135876,0.007133275369316154,0.0
0.8007812499999886,0.007350806451612903,0.0071228302418352065,0.0
0.8014322916666552,0.00734084799608993,0.007112242547040852,0.0
0.8020833333333218,0.00745307917888563,0.007101520206464679,0.0
0.8027343749999885,0.007320869990224828,0.007090610864888411,0.0
0.8033854166666551,0.006944342619745846,0.007079646613060411,0.0
0.8040364583333217,0.007056757086999021,0.007068761025333527,0.0
0.8046874999999883,0.006924731182795699,0.007057722818221773,0.0
0.805338541666655,0.0069149560117302035,0.00704666905674212,0.0
0.8059895833333216,0.006660801564027371,0.007035555188246789,0.0
0.8066406249999882,0.006773338220918867,0.0070245213248524355,0.0
0.8072916666666549,0.006763624144672532,0.007013403039369652,0.0
0.8079427083333215,0.006876099706744868,0.007002280642740958,0.0
0.8085937499999881,0.006988514173998045,0.006991111966616183,0.0
0.8092447916666548,0.006978677908113394,0.006979915005446697,0.0
0.8098958333333214,0.007091031280547409,0.0069687673559381885,0.0
0.810546874999988,0.007081133919843597,0.0069576225072571045,0.0
0.8111979166666546,0.007071236559139783,0.006946553955984605,0.0
0.8118489583333213,0.007061339198435972,0.006935571819411962,0.0
0.8124999999999879,0.007051441837732162,0.006924683971195317,0.0
0.8131510416666545,0.007041544477028348,0.006913896193677371,0.0
0.8138020833333212,0.006909457478005865,0.00690321240701787,0.0
0.8144531249999878,0.006899621212121213,0.006892696034474304,0.0
0.8151041666666544,0.006889784946236561,0.006882286992024751,0.0
0.815755208333321,0.006757759042033235,0.006871985216502366,0.0
0.8164062499999877,0.006625794232649071,0.00686185085512578,0.0
0.8170572916666543,0.006616080156402736,0.006851882191445266,0.0
0.8177083333333209,0.0067285557184750735,0.006842015668343934,0.0
0.8183593749999876,0.006596590909090911,0.006832186911369958,0.0
0.8190104166666542,0.006709066471163247,0.0068225138731945285,0.0
0.8196614583333208,0.006577101661779081,0.0068128690000586216,0.0
0.8203124999999875,0.0065673875855327465,0.006803367820537667,0.0
0.8209635416666541,0.006679863147605082,0.006793941127714616,0.0
0.8216145833333207,0.006792277614858259,0.006784518136947506,0.0
0.8222656249999873,0.007026820625610948,0.006775087507505835,0.0
0.822916666666654,0.006894672531769307,0.00676557518081848,0.0
0.8235677083333206,0.007006964809384163,0.006756150031513783,0.0
0.8242187499999872,0.006997006353861192,0.006746674356660664,0.0
0.8248697916666539,0.006987047898338221,0.006737193121267235,0.0
0.8255208333333205,0.006732710166177909,0.006727690167331708,0.0
0.8261718749999871,0.006478494623655915,0.006718272128321159,0.0
0.8268229166666538,0.006468780547409578,0.006708924636589354,0.0
0.8274739583333204,0.006459066471163245,0.006699512771231765,0.0
0.828124999999987,0.006449352394916912,0.006690025684107368,0.0
0.8287760416666536,0.006439638318670577,0.006680454453338144,0.0
0.8294270833333203,0.00630773460410557,0.0066707919615211445,0.0
0.8300781249999869,0.006298081622678397,0.006661093747517373,0.0
0.8307291666666535,0.006532807917888565,0.00665129438980465,0.0
0.8313802083333202,0.006645222385141742,0.006641268215344221,0.0
0.8320312499999868,0.006635386119257089,0.006631073299800583,0.0
0.8326822916666534,0.006747739491691104,0.006620767886719866,0.0
0.83333333333332,0.0068600317693059635,0.0066102880403096295,0.0
0.8339843749999867,0.006850073313782991,0.006599630934004845,0.0
0.8346354166666533,0.00684011485826002,0.006588855017530132,0.0
0.8352864583333199,0.006585777126099708,0.006577958138050437,0.0
0.8359374999999866,0.006453751221896382,0.006567061226802632,0.0
0.8365885416666532,0.00644397605083089,0.006556103233530096,0.0
0.8372395833333198,0.006434200879765395,0.006545024736114617,0.0
0.8378906249999865,0.006302236070381233,0.006533829220776866,0.0
0.8385416666666531,0.006292521994134898,0.006522583114735678,0.0
0.8391927083333197,0.006282807917888563,0.006511232391248833,0.0
0.8398437499999863,0.0062730938416422286,0.006499785616950563,0.0
0.840494791666653,0.006385569403714564,0.006488252520139673,0.0
0.8411458333333196,0.0062536045943304,0.006476582499119412,0.0
0.8417968749999862,0.006243890518084067,0.0064649085874273265,0.0
0.8424479166666529,0.006356366080156401,0.006453180483873453,0.0
0.8430989583333195,0.006346590909090909,0.006441347465887648,0.0
0.8437499999999861,0.006459005376344086,0.006429480256893901,0.0
0.8444010416666528,0.006449169110459434,0.006417526401746547,0.0
0.8450520833333194,0.006561522482893449,0.006405554504541549,0.0
0.845703124999986,0.006551625122189637,0.006393509827894329,0.0
0.8463541666666526,0.006663917399804495,0.006381458775737625,0.0
0.8470052083333193,0.006653958944281526,0.006369344738688038,0.0
0.8476562499999859,0.006521810850439881,0.0063572328063517605,0.0
0.8483072916666525,0.006389723851417402,0.006345187990029979,0.0
0.8489583333333192,0.006013318670576737,0.006333214562501892,0.0
0.8496093749999858,0.006125855327468233,0.006321439713522837,0.0
0.8502604166666524,0.0059939516129032255,0.006309625009430632,0.0
0.850911458333319,0.005984298631476053,0.006297899543734746,0.0
0.8515624999999857,0.005974645650048875,0.006286209893573893,0.0
0.8522135416666523,0.005964992668621702,0.006274564145203001,0.0
0.8528645833333189,0.0060775293255132,0.006262970334126915,0.0
0.8535156249999856,0.0061900048875855335,0.00625137483338918,0.0
0.8541666666666522,0.006424608993157381,0.006239784043763911,0.0
0.8548177083333188,0.006292521994134898,0.0062281417989328205,0.0
0.8554687499999855,0.006404875366568913,0.006216634594813121,0.0
0.8561197916666521,0.006394978005865104,0.006205141681732315,0.0
0.8567708333333187,0.006507270283479961,0.006193723948655424,0.0
0.8574218749999853,0.006497311827956988,0.0061823187278551624,0.0
0.858072916666652,0.006120784457478006,0.006170984576712289,0.0
0.8587239583333186,0.006111009286412512,0.006159901757048856,0.0
0.8593749999999852,0.006101234115347019,0.006148883953382542,0.0
0.8600260416666519,0.0060914589442815255,0.0061379285154190685,0.0
0.8606770833333185,0.005837304496578689,0.006127033427752831,0.0
0.8613281249999851,0.005827651515151517,0.006116319609669569,0.0
0.8619791666666518,0.005940188172043011,0.006105664310943874,0.0
0.8626302083333184,0.006174853372434017,0.006095006412109809,0.0
0.863281249999985,0.006165017106549365,0.006084285062904654,0.0
0.8639322916666516,0.006032991202346039,0.0060736226896080416,0.0
0.8645833333333183,0.006145405669599216,0.006063080399349323,0.0
0.8652343749999849,0.006135569403714564,0.006052535658387367,0.0
0.8658854166666515,0.006125733137829914,0.006042048804471644,0.0
0.8665364583333182,0.00611589687194526,0.006031618675838686,0.0
0.8671874999999848,0.006106060606060606,0.006021243770500212,0.0
0.8678385416666514,0.006340603616813295,0.006010922355370413,0.0
0.868489583333318,0.0063306451612903224,0.006000530426178708,0.0
0.8691406249999847,0.0063206867057673515,0.005990188479106052,0.0
0.8697916666666513,0.006310728250244379,0.005979895213438242,0.0
0.8704427083333179,0.0061785801564027375,0.005969650054218332,0.0
0.8710937499999846,0.006046493157380255,0.0059595146039384695,0.0
0.8717447916666512,0.00579227761485826,0.005949490774593348,0.0
0.8723958333333178,0.005904753176930596,0.0059396431946878,0.0
0.8730468749999845,0.005772788367546432,0.005929793788727901,0.0
0.8736979166666511,0.005640884652981428,0.005920071495145673,0.0
0.8743489583333177,0.005631231671554255,0.00591048428794198,0.0
0.8749999999999843,0.005743768328445748,0.005900979802375604,0.0
0.875651041666651,0.0058562438905180834,0.005891505842885386,0.0
0.8763020833333176,0.006090847996089933,0.00588207083860799,0.0
0.8769531249999842,0.006203140273704789,0.00587262105606758,0.0
0.8776041666666509,0.006193181818181816,0.005863223426257053,0.0
0.8782552083333175,0.006305413000977518,0.005853943109003867,0.0
0.8789062499999841,0.006173203812316714,0.0058447212913148245,0.0
0.8795572916666508,0.006163245356793743,0.005835680858864137,0.0
0.8802083333333174,0.006153286901270771,0.005826760178098044,0.0
0.880859374999984,0.005776759530791788,0.005817957909310049,0.0
0.8815104166666506,0.005889173998044965,0.005809455636124721,0.0
0.8821614583333173,0.005757148093841643,0.005801007286371218,0.0
0.8828124999999839,0.005747372922776148,0.005792733604029045,0.0
0.8834635416666505,0.005615408113391984,0.005784572382804844,0.0
0.8841145833333172,0.005605694037145651,0.005776583880318391,0.0
0.8847656249999838,0.005718169599217986,0.0057687062476199456,0.0
0.8854166666666504,0.005708394428152493,0.0057608774232389085,0.0
0.886067708333317,0.00582080889540567,0.0057531569702107335,0.0
0.8867187499999837,0.005688782991202344,0.005745481346529295,0.0
0.8873697916666503,0.005801197458455523,0.005737969080171587,0.0
0.8880208333333169,0.005791361192570871,0.005730492882820356,0.0
0.8886718749999836,0.0059037145650048875,0.005723107177470905,0.0
0.8893229166666502,0.006016006842619744,0.0057157425848551055,0.0
0.8899739583333168,0.005883858748778104,0.005708389281387396,0.0
0.8906249999999835,0.005996151026392964,0.005701158291267406,0.0
0.8912760416666501,0.005864002932551321,0.005693915228819449,0.0
0.8919270833333167,0.005854105571847509,0.005686769450116624,0.0
0.8925781249999833,0.005722018572825024,0.0056796468199983505,0.0
0.89322916666665,0.005712182306940372,0.005672595606471346,0.0
0.8938802083333166,0.00570234604105572,0.00566554246637255,0.0
0.8945312499999832,0.005448130498533724,0.0056584760070528895,0.0
0.8951822916666499,0.005438416422287389,0.0056515080504228555,0.0
0.8958333333333165,0.005428702346041056,0.005644507107085982,0.0
0.8964843749999831,0.005418988269794723,0.005637464850602263,0.0
0.8971354166666498,0.0052870845552297156,0.005630373706702108,0.0
0.8977864583333164,0.005399621212121213,0.005623287632111441,0.0
0.898437499999983,0.005512096774193549,0.005616077361170902,0.0
0.8990885416666496,0.005746700879765396,0.005608735493258016,0.0
0.8997395833333163,0.005981182795698925,0.005601192878377433,0.0
0.9003906249999829,0.005848973607038125,0.00559344062064897,0.0
0.9010416666666495,0.005839015151515152,0.0055856522948276545,0.0
0.9016927083333162,0.005829056695992178,0.005577756534056869,0.0
0.9023437499999828,0.005819098240469209,0.005569742931042451,0.0
0.9029947916666494,0.005686950146627567,0.00556160147233929,0.0
0.903645833333316,0.005432673509286412,0.005553384193678323,0.0
0.9042968749999827,0.005545087976539589,0.00554514460645472,0.0
0.9049479166666493,0.005413062072336267,0.00553669373041062,0.0
0.9055989583333159,0.005281097262952101,0.00552815020206341,0.0
0.9062499999999826,0.005149193548387098,0.005519512692721092,0.0
0.9069010416666492,0.0051395405669599215,0.005510782002383646,0.0
0.9075520833333158,0.005129887585532745,0.005501899690585446,0.0
0.9082031249999825,0.005364613880742912,0.005492869832028449,0.0
0.9088541666666491,0.005599217986314763,0.0054835751959150724,0.0
0.9095052083333157,0.00546713098729228,0.005474021081536865,0.0
0.9101562499999823,0.005579484359726295,0.005464395964102517,0.0
0.910807291666649,0.005569586999022482,0.0054545824461908286,0.0
0.9114583333333156,0.0056818792766373406,0.005444645896982221,0.0
0.9121093749999822,0.005549731182795699,0.005434529013440232,0.0
0.9127604166666489,0.005417644183773216,0.0054243574590484836,0.0
0.9134114583333155,0.005529997556207233,0.005414134642722626,0.0
0.9140624999999821,0.005397910557184752,0.005403742004359542,0.0
0.9147135416666488,0.0053880742913000965,0.0053933058530931085,0.0
0.9153645833333154,0.005378238025415446,0.005382769927751286,0.0
0.916015624999982,0.00524621212121212,0.0053721399381642596,0.0
0.9166666666666486,0.005236436950146627,0.005361483652004118,0.0
0.9173177083333153,0.004982282502443794,0.0053507476093188604,0.0
0.9179687499999819,0.00497262952101662,0.005340062491280519,0.0
0.9186197916666485,0.004962976539589442,0.005329315227865557,0.0
0.9192708333333152,0.004953323558162267,0.005318515208860609,0.0
0.9199218749999818,0.004943670576735094,0.005307671628583863,0.0
0.9205729166666484,0.005056207233626589,0.005296792958620435,0.0
0.921223958333315,0.005168682795698926,0.005285825320414945,0.0
0.9218749999999817,0.005281097262952103,0.00527477419884698,0.0
0.9225260416666483,0.00539345063538612,0.005263642993117447,0.0
0.9231770833333149,0.005383553274682307,0.005252432841042184,0.0
0.9238281249999816,0.005373655913978493,0.005241203747964777,0.0
0.9244791666666482,0.005363758553274683,0.0052299526360924465,0.0
0.9251302083333148,0.005353861192570869,0.005218674845571362,0.0
0.9257812499999815,0.005221774193548386,0.005207364653450144,0.0
0.9264322916666481,0.004967558651026393,0.005196076939268111,0.0
0.9270833333333147,0.00495784457478006,0.005184866642672159,0.0
0.9277343749999813,0.004825940860215053,0.005173605935775756,0.0
0.928385416666648,0.00481628787878788,0.00516235109152797,0.0
0.9290364583333146,0.004806634897360704,0.005151037126963476,0.0
0.9296874999999812,0.0046747922776148605,0.005139661034029195,0.0
0.9303385416666479,0.004787390029325513,0.0051282815853861624,0.0
0.9309895833333145,0.005022116324535678,0.005116774660219647,0.0
0.9316406249999811,0.005134530791788857,0.005105077284769526,0.0
0.9322916666666478,0.005124694525904203,0.0050932484261836,0.0
0.9329427083333144,0.005114858260019551,0.005081346621295852,0.0
0.933593749999981,0.005227211632453569,0.005069368861470857,0.0
0.9342447916666476,0.005217314271749757,0.005057250729266841,0.0
0.9348958333333143,0.005207416911045945,0.005045049952025683,0.0
0.9355468749999809,0.00495314027370479,0.005032763488755117,0.0
0.9361979166666475,0.0050655547409579685,0.005020511242595437,0.0
0.9368489583333142,0.0049335288367546425,0.005008108818722771,0.0
0.9374999999999808,0.004923753665689149,0.0049956788294686656,0.0
0.9381510416666474,0.004791788856304985,0.004983162393056834,0.0
0.938802083333314,0.00465988514173998,0.004970624746587409,0.0
0.9394531249999807,0.004772421798631478,0.0049580719661562,0.0
0.9401041666666473,0.004762707722385143,0.0049453897344511576,0.0
0.9407552083333139,0.004752993646138806,0.0049326485519740615,0.0
0.9414062499999806,0.004743279569892471,0.004919859011154126,0.0
0.9420572916666472,0.00473356549364614,0.004907032505475906,0.0
0.9427083333333138,0.004601661779081135,0.004894180834868915,0.0
0.9433593749999805,0.004836388074291301,0.00488137691249961,0.0
0.9440104166666471,0.004826612903225808,0.004868448921683011,0.0
0.9446614583333137,0.004939027370478985,0.004855529844711657,0.0
0.9453124999999803,0.005051380742913001,0.004842568464587993,0.0
0.945963541666647,0.005041483382209189,0.004829573628721759,0.0
0.9466145833333136,0.005153775659824047,0.004816614280687646,0.0
0.9472656249999802,0.005021627565982404,0.004803636357115428,0.0
0.9479166666666469,0.005011730205278593,0.004790768571603364,0.0
0.9485677083333135,0.004757453567937438,0.0047779562382909615,0.0
0.9492187499999801,0.004503299120234606,0.004765328246011949,0.0
0.9498697916666468,0.0046158357771261,0.0047528919150482156,0.0
0.9505208333333134,0.004483932062561095,0.004740472078179216,0.0
0.95117187499998,0.00447427908113392,0.004728199820662627,0.0
0.9518229166666466,0.0043424364613880734,0.004716023518602028,0.0
0.9524739583333133,0.004332844574780059,0.004704013957834789,0.0
0.9531249999999799,0.004445442326490714,0.0046921194797848904,0.0
0.9537760416666465,0.0046801686217008785,0.004680287617425357,0.0
0.9544270833333132,0.004914772727272728,0.00466846453220322,0.0
0.9550781249999798,0.004782685728250243,0.0046566556353203874,0.0
0.9557291666666464,0.004895039100684263,0.0046450474867761665,0.0
0.956380208333313,0.004885141739980449,0.004633518972300647,0.0
0.9570312499999797,0.004997434017595309,0.004622130210774928,0.0
0.9576822916666463,0.004865285923753668,0.004610817405067858,0.0
0.9583333333333129,0.0046110092864125145,0.00459969877370905,0.0
0.9589843749999796,0.004601234115347021,0.004588830700188256,0.0
0.9596354166666462,0.004469269305962852,0.004578086056822003,0.0
0.9602864583333128,0.004581744868035191,0.004567521189674146,0.0
0.9609374999999795,0.004327590420332357,0.004557009623192115,0.0
0.9615885416666461,0.00431793743890518,0.004546730942813577,0.0
0.9622395833333127,0.004308284457478006,0.0045365598271276675,0.0
0.9628906249999793,0.004420821114369502,0.004526493556732777,0.0
0.963541666666646,0.0045332966764418375,0.004516468467206555,0.0
0.9641927083333126,0.004401331867057674,0.004506481825012095,0.0
0.9648437499999792,0.004513807429130009,0.004496652622313041,0.0
0.9654947916666459,0.0045040322580645175,0.00448685476548615,0.0
0.9661458333333125,0.0046164467253176945,0.004477144572383903,0.0
0.9667968749999791,0.004606610459433039,0.004467455219156631,0.0
0.9674479166666458,0.004596774193548389,0.004457841139511301,0.0
0.9680989583333124,0.004709127565982404,0.004448294863373259,0.0
0.968749999999979,0.004699230205278591,0.004438747235457312,0.0
0.9694010416666456,0.004689332844574781,0.004429251001102018,0.0
0.9700520833333123,0.004557245845552296,0.004419797889921474,0.0
0.9707031249999789,0.004425219941348974,0.004410441209983959,0.0
0.9713541666666455,0.004415444770283482,0.00440117404802717,0.0
0.9720052083333122,0.0042834799608993165,0.004391929585337119,0.0
0.9726562499999788,0.004395955522971654,0.004382764579511658,0.0
0.9733072916666454,0.00426399071358749,0.004373553953272797,0.0
0.973958333333312,0.004254276637341155,0.0043644183967625726,0.0
0.9746093749999787,0.004122372922776148,0.004355296538276981,0.0
0.9752604166666453,0.0041127199413489735,0.004346250163316711,0.0
0.9759114583333119,0.0042252565982404695,0.004337219499104902,0.0
0.9765624999999786,0.0044599217986314756,0.004328145006729535,0.0
0.9772135416666452,0.004572275171065494,0.004318966974053503,0.0
0.9778645833333118,0.004562377810361682,0.004309747369642764,0.0
0.9785156249999785,0.00467467008797654,0.004300547465005174,0.0
0.9791666666666451,0.004664711632453567,0.004291305641054507,0.0
0.9798177083333117,0.004654753176930596,0.004282081941839673,0.0
0.9804687499999784,0.004644794721407624,0.004272875111345113,0.0
0.981119791666645,0.004268267350928641,0.004263684107932329,0.0
0.9817708333333116,0.004258492179863148,0.004254691837432161,0.0
0.9824218749999782,0.004248717008797653,0.004245715689438991,0.0
0.9830729166666449,0.004116752199413489,0.004236757642330029,0.0
0.9837239583333115,0.004107038123167154,0.004227882149547465,0.0
0.9843749999999781,0.0040973240469208225,0.004219032758051781,0.0
0.9850260416666448,0.004209799608993155,0.004210215146295499,0.0
0.9856770833333114,0.0042000244379276665,0.004201374578629612,0.0
0.986328124999978,0.004312438905180842,0.004192578780762006,0.0
0.9869791666666446,0.004180413000977519,0.004183773157974,0.0
0.9876302083333113,0.004292827468230693,0.004175085917291302,0.0
0.9882812499999779,0.004282991202346039,0.004166400123230551,0.0
0.9889322916666445,0.0043953445747800576,0.00415778115918191,0.0
0.9895833333333112,0.004385447214076247,0.004149171136623506,0.0
0.9902343749999778,0.004253360215053762,0.004140633252683844,0.0
0.9908854166666444,0.004365713587487781,0.004132229670989367,0.0
0.991536458333311,0.00435581622678397,0.004123838378391341,0.0
0.9921874999999777,0.004345918866080158,0.004115519939834053,0.0
0.9928385416666443,0.004213831867057675,0.004107273333137549,0.0
0.9934895833333109,0.004081805962854349,0.0040991583632838955,0.0
0.9941406249999776,0.004194220430107528,0.004091173675160221,0.0
0.9947916666666442,0.0038178152492668645,0.004083195798476158,0.0
0.9954427083333108,0.003930351906158357,0.004075467951607805,0.0
0.9960937499999775,0.0037984481915933534,0.004067744643536536,0.0
0.9967447916666441,0.003788795210166179,0.004060146804903319,0.0
0.9973958333333107,0.0037791422287390044,0.004052611622716288,0.0
0.9980468749999774,0.0038916788856305003,0.004045136523599756,0.0
0.998697916666644,0.004004154447702836,0.004037656551049881,0.0
0.9993489583333106,0.004116568914956013,0.004030166147129662,0.0
0.9999999999999772,0.0043511119257086985,0.0040226577475844785,0.0
1.0006510416666439,0.004218963831867059,0.004015060543513986,0.0
1.0013020833333106,0.004331256109481915,0.004007546024084429,0.0
1.0019531249999774,0.0043212976539589425,0.003999978409703984,0.0
1.002604166666644,0.004311339198435972,0.003992403882868514,0.0
1.0032552083333108,0.0041791911045943285,0.003984806815752883,0.0
1.0039062499999776,0.0038027248289345082,0.003977232638816359,0.0
1.0045572916666443,0.003915200391006846,0.0039697885087695345,0.0
1.005208333333311,0.00378323558162268,0.003962216205573332,0.0
1.0058593749999778,0.0037735215053763434,0.0039546256521134,0.0
1.0065104166666445,0.00364161779081134,0.003946945242873114,0.0
1.0071614583333113,0.0036319648093841653,0.003939227314245663,0.0
1.007812499999978,0.003744501466275661,0.003931403599475249,0.0
1.0084635416666448,0.003856977028347995,0.00392340712530553,0.0
1.0091145833333115,0.003969391495601174,0.003915232945729843,0.0
1.0097656249999782,0.00395955522971652,0.003906876696704171,0.0
1.010416666666645,0.003949718963831866,0.003898395422197973,0.0
1.0110677083333117,0.004062072336265887,0.003889785235662866,0.0
1.0117187499999785,0.004052174975562071,0.0038809812959679332,0.0
1.0123697916666452,0.004042277614858258,0.003872041182647711,0.0
1.013020833333312,0.003910190615835779,0.0038629618010869904,0.0
1.0136718749999787,0.004022543988269796,0.003853801831754129,0.0
1.0143229166666454,0.003890456989247313,0.0038444376393295876,0.0
1.0149739583333122,0.0038806207233626593,0.003834991214904835,0.0
1.015624999999979,0.003748594819159335,0.0038254027513538965,0.0
1.0162760416666456,0.003616630009775173,0.003815736289182158,0.0
1.0169270833333124,0.0037291055718475068,0.0038059965057159954,0.0
1.0175781249999791,0.0034749511241446707,0.003796067572252318,0.0
1.0182291666666459,0.00358748778103617,0.0037861406424781812,0.0
1.0188802083333126,0.0035777737047898335,0.0037760415182324617,0.0
1.0195312499999793,0.003568059628543497,0.0037658412148286395,0.0
1.020182291666646,0.0034361559139784933,0.0037555500483498114,0.0
1.0208333333333128,0.0035486925708699893,0.0037452393666530816,0.0
1.0214843749999796,0.003783357771260997,0.0037347967176224843,0.0
1.0221354166666463,0.003895711143695014,0.0037241698161167226,0.0
1.022786458333313,0.004008003421309872,0.003713427327284213,0.0
1.0234374999999798,0.0038758553274682306,0.0037025754400066106,0.0
1.0240885416666465,0.003988147605083089,0.003691741213243603,0.0
1.0247395833333133,0.0038559995112414473,0.0036808062554439286,0.0
1.02539062499998,0.003846102150537635,0.0036698958653837398,0.0
1.0260416666666468,0.003714015151515152,0.0036589518211931275,0.0
1.0266927083333135,0.003337609970674487,0.0036480383107176354,0.0
1.0273437499999802,0.003450146627565983,0.003637281221595246,0.0
1.027994791666647,0.003318242913000976,0.003626440715261748,0.0
1.0286458333333137,0.0033085899315738014,0.0036156444072994406,0.0
1.0292968749999805,0.0031767473118279564,0.0036048373607252037,0.0
1.0299479166666472,0.003167155425219944,0.0035940872407613407,0.0
1.030598958333314,0.0031575635386119245,0.0035833394850678583,0.0
1.0312499999999807,0.0035145405669599235,0.00357260004600364,0.0
1.0319010416666474,0.0036269550342130988,0.003561690441147235,0.0
1.0325520833333142,0.0034949291300097746,0.0035507360085956746,0.0
1.033203124999981,0.00360734359726295,0.00353986008976355,0.0
1.0338541666666476,0.003597507331378296,0.003528939510838841,0.0
1.0345052083333144,0.0035876710654936493,0.00351803230046301,0.0
1.0351562499999811,0.003700024437927666,0.0035071335258361263,0.0
1.0358072916666479,0.0034457478005865093,0.003496175637260671,0.0
1.0364583333333146,0.003558162267839688,0.003485334379726714,0.0
1.0371093749999813,0.003426136363636364,0.0034744183285518194,0.0
1.037760416666648,0.003416361192570872,0.0034635414120330345,0.0
1.0384114583333148,0.0031622067448680395,0.0034526345855458037,0.0
1.0390624999999816,0.0031525537634408615,0.003441812748846758,0.0
1.0397135416666483,0.0031429007820136835,0.0034309473087402245,0.0
1.040364583333315,0.0031332478005865125,0.0034200328271910482,0.0
1.0410156249999818,0.003123594819159338,0.003409064769323145,0.0
1.0416666666666485,0.0029917521994134895,0.003398039331389582,0.0
1.0423177083333153,0.0032265395894428145,0.0033870142905570375,0.0
1.042968749999982,0.0032168255131964814,0.0033758032467741113,0.0
1.0436197916666488,0.003207111436950145,0.0033645251948956735,0.0
1.0442708333333155,0.0031973973607038117,0.003353176629688478,0.0
1.0449218749999822,0.0033098729227761456,0.003341753585523002,0.0
1.045572916666649,0.003544477028347995,0.003330190484528802,0.0
1.0462239583333157,0.0034123900293255155,0.003318421280897634,0.0
1.0468749999999825,0.003524743401759532,0.0033066240185134787,0.0
1.0475260416666492,0.003392656402737046,0.0032946712921467355,0.0
1.048177083333316,0.0033828201368523957,0.003282680524903379,0.0
1.0488281249999827,0.003250794232649075,0.003270586785309207,0.0
1.0494791666666494,0.0028744501466275683,0.0032584487339160383,0.0
1.0501302083333162,0.0029870478983382194,0.003246387918243628,0.0
1.050781249999983,0.0028552052785923744,0.0032341613406611895,0.0
1.0514322916666496,0.0028456133919843585,0.0032218946221604433,0.0
1.0520833333333164,0.002836021505376346,0.0032095319702519546,0.0
1.0527343749999831,0.0028264296187683266,0.003197080211621834,0.0
1.0533854166666499,0.002816837732160314,0.0031845472321084356,0.0
1.0540364583333166,0.003051625122189639,0.003171941445692367,0.0
1.0546874999999833,0.003164100684261973,0.003159149067625129,0.0
1.05533854166665,0.0031543255131964813,0.003146239116294629,0.0
1.0559895833333168,0.0032667399804496566,0.0031332797921527437,0.0
1.0566406249999836,0.0032569037145650064,0.003120216130380819,0.0
1.0572916666666503,0.003369257086999023,0.0031071144080283214,0.0
1.057942708333317,0.0033593597262952107,0.003093917962530192,0.0
1.0585937499999838,0.002982893450635387,0.0030806919108508015,0.0
1.0592447916666505,0.0029731793743890504,0.003067623580082535,0.0
1.0598958333333173,0.0028412756598240434,0.0030545341847810163,0.0
1.060546874999984,0.0028316226783968723,0.0030414901209217912,0.0
1.0611979166666508,0.0026997800586510273,0.003028436589494487,0.0
1.0618489583333175,0.0026901881720430114,0.003015441996185544,0.0
1.0624999999999842,0.0028027859237536694,0.0030024534296407644,0.0
1.063151041666651,0.0027931329423264914,0.00298941857485009,0.0
1.0638020833333177,0.002905669599217984,0.0029764075436394927,0.0
1.0644531249999845,0.0028959555229716542,0.002963368117144871,0.0
1.0651041666666512,0.002886241446725321,0.0029503697848343394,0.0
1.065755208333318,0.0028765273704789845,0.0029374201937038824,0.0
1.0664062499999847,0.002866813294232648,0.0029245260619125534,0.0
1.0670572916666514,0.0029792888563049853,0.0029116930771496408,0.0
1.0677083333333182,0.00296951368523949,0.002898864772436863,0.0
1.068359374999985,0.003081928152492669,0.0028861058550174105,0.0
1.0690104166666516,0.003072091886608015,0.002873357953487005,0.0
1.0696614583333184,0.003062255620723365,0.0028606842104366794,0.0
1.0703124999999851,0.0029302297165200407,0.002848086290221625,0.0
1.0709635416666519,0.0029204545454545455,0.002835626911222935,0.0
1.0716145833333186,0.00278848973607038,0.00282324690757954,0.0
1.0722656249999853,0.0026565860215053763,0.002811009905607697,0.0
1.072916666666652,0.0025247434017595313,0.0027989192395207934,0.0
1.0735677083333188,0.002515151515151512,0.002786979109077563,0.0
1.0742187499999856,0.00262774926686217,0.0027751333858598505,0.0
1.0748697916666523,0.002495906647116325,0.0027633264554455376,0.0
1.075520833333319,0.0024863147605083125,0.002751686136280335,0.0
1.0761718749999858,0.0025989125122189635,0.002740156681993571,0.0
1.0768229166666525,0.0028336388074291334,0.002728681617580083,0.0
1.0774739583333193,0.0029460532746823052,0.0027172033246564194,0.0
1.078124999999986,0.0029362170087976515,0.0027057849230916,0.0
1.0787760416666528,0.0030485703812316717,0.002694487948084824,0.0
1.0794270833333195,0.003038673020527856,0.0026832502315041334,0.0
1.0800781249999862,0.003028775659824047,0.0026721305443586207,0.0
1.080729166666653,0.003018878299120238,0.0026611257310074797,0.0
1.0813802083333197,0.002764601661779078,0.0026502323263592775,0.0
1.0820312499999865,0.0027548264907135897,0.002639569304891209,0.0
1.0826822916666532,0.002622861681329424,0.0026290120298411088,0.0
1.08333333333332,0.002613147605083091,0.0026186203209046317,0.0
1.0839843749999867,0.002481243890518084,0.002608333223085295,0.0
1.0846354166666534,0.0024715909090909094,0.002598213451342981,0.0
1.0852864583333202,0.002461937927663735,0.0025882029030827084,0.0
1.085937499999987,0.0026966642228739013,0.002578305681941533,0.0
1.0865885416666536,0.0028090786901270766,0.002568404447618301,0.0
1.0872395833333204,0.0026770527859237524,0.002558565494976318,0.0
1.0878906249999871,0.0026672776148582607,0.0025489162170653223,0.0
1.0885416666666539,0.002657502443792769,0.0025394004638232158,0.0
1.0891927083333206,0.0027699169110459443,0.002530022737322037,0.0
1.0898437499999873,0.002760080645161287,0.002520725877880986,0.0
1.090494791666654,0.002750244379276637,0.002511574281424702,0.0
1.0911458333333208,0.002862597751710657,0.002502570611754426,0.0
1.0917968749999876,0.0027305107526881672,0.002493655862357594,0.0
1.0924479166666543,0.002720674486803517,0.0024849538539468098,0.0
1.093098958333321,0.0027108382209188667,0.002476404820536652,0.0
1.0937499999999878,0.0025788123167155425,0.0024680099505337014,0.0
1.0944010416666545,0.0025690371456500508,0.00245983152337596,0.0
1.0950520833333213,0.0023148826979472147,0.0024518097071929853,0.0
1.095703124999988,0.0024274193548387106,0.0024440680316064347,0.0
1.0963541666666548,0.002295515640273707,0.002436424520241536,0.0
1.0970052083333215,0.0024080522971651995,0.002429002416762257,0.0
1.0976562499999882,0.0022761485826001994,0.0024216800167444924,0.0
1.098307291666655,0.002388685239491692,0.002414579055965535,0.0
1.0989583333333217,0.0025011608015640292,0.002407575566273703,0.0
1.0996093749999885,0.0026135752688172045,0.0024006660873494646,0.0
1.1002604166666552,0.0028481182795698917,0.0023938452032610186,0.0
1.100911458333322,0.0027159701857282503,0.002387044318546139,0.0
1.1015624999999887,0.0027060728250244415,0.0023804371928066717,0.0
1.1022135416666554,0.0026961754643206257,0.002373951434275013,0.0
1.1028645833333222,0.0026862781036168133,0.0023675743744320547,0.0
1.103515624999989,0.0025541911045943305,0.0023612924602384,0.0
1.1041666666666556,0.0022999755620723393,0.002355152862826296,0.0
1.1048177083333224,0.0024124511241446697,0.002349202861387048,0.0
1.1054687499999891,0.0022804863147605076,0.0023432458439853,0.0
1.1061197916666559,0.0022707722385141745,0.00233739140086975,0.0
1.1067708333333226,0.0021388685239491674,0.002331566658983714,0.0
1.1074218749999893,0.0021292155425219964,0.0023258217139756434,0.0
1.108072916666656,0.002241752199413489,0.002320085088302363,0.0
1.1087239583333228,0.002354227761485826,0.0023142856632191594,0.0
1.1093749999999896,0.002466642228739005,0.0023084134721475602,0.0
1.1100260416666563,0.002456805962854351,0.002302458332615439,0.0
1.110677083333323,0.0024469696969696975,0.0022964707615610535,0.0
1.1113281249999898,0.0024371334310850437,0.0022904397323342523,0.0
1.1119791666666565,0.0024272971652003934,0.002284353837214701,0.0
1.1126302083333233,0.00253965053763441,0.0022782014504022898,0.0
1.11328124999999,0.0022853739002932534,0.0022719098645297277,0.0
1.1139322916666567,0.0025199780058651026,0.0022656510409574827,0.0
1.1145833333333235,0.00238789100684262,0.002259169863167971,0.0
1.1152343749999902,0.002378054740957966,0.002252639758717717,0.0
1.115885416666657,0.002246028836754642,0.0022459909327619217,0.0
1.1165364583333237,0.0021140640273704762,0.002239277174631058,0.0
1.1171874999999905,0.002104349951124143,0.0022324927379359593,0.0
1.1178385416666572,0.0018502565982404656,0.0022255723943492107,0.0
1.118489583333324,0.0019628543499511236,0.0022186357285587884,0.0
1.1191406249999907,0.001953201368523949,0.0022114981484288245,0.0
1.1197916666666574,0.0019435483870967746,0.002204220377653412,0.0
1.1204427083333242,0.0019338954056695966,0.0021968025360928263,0.0
1.121093749999991,0.0020464320625610925,0.0021892447588858855,0.0
1.1217447916666576,0.0021589076246334334,0.002181485645910532,0.0
1.1223958333333244,0.002271322091886605,0.002173524065553996,0.0
1.1230468749999911,0.0025058651026392924,0.002165357799453547,0.0
1.1236979166666579,0.002251527370478984,0.0021569223650439785,0.0
1.1243489583333246,0.0023638807429130007,0.0021484577069531023,0.0
1.1249999999999913,0.0023539833822091884,0.0021397753694667367,0.0
1.125651041666658,0.0023440860215053726,0.002130930984975119,0.0
1.1263020833333248,0.0023341886608015637,0.0021219193242643054,0.0
1.1269531249999916,0.0018355327468230695,0.0021127359462261956,0.0
1.1276041666666583,0.0019480694037145654,0.002103622101617536,0.0
1.128255208333325,0.0018161656891495584,0.002094270911554118,0.0
1.1289062499999918,0.0018065127077223839,0.002084805109623043,0.0
1.1295572916666585,0.0017968597262952128,0.0020751661084759273,0.0
1.1302083333333253,0.0016650171065493644,0.0020653582056847455,0.0
1.130859374999992,0.0017776148582600258,0.002055448261303621,0.0
1.1315104166666587,0.0020123411534701853,0.0020453208903089466,0.0
1.1321614583333255,0.0022469452590420345,0.0020349223677078978,0.0
1.1328124999999922,0.0021148582600195517,0.0020242601971516994,0.0
1.133463541666659,0.002105021994134898,0.002013525003062473,0.0
1.1341145833333257,0.0020951857282502442,0.0020026627457309406,0.0
1.1347656249999925,0.0022075391006842644,0.0019916802306196996,0.0
1.1354166666666592,0.002197641739980452,0.0019805230665840643,0.0
1.136067708333326,0.0019433651026392953,0.0019692591780102516,0.0
1.1367187499999927,0.0019335899315738037,0.0019580179866980716,0.0
1.1373697916666594,0.0018016251221896415,0.0019466852119256542,0.0
1.1380208333333262,0.0019141006842619754,0.0019353307427667865,0.0
1.138671874999993,0.0016599462365591428,0.0019238421695303952,0.0
1.1393229166666596,0.0016502932551319648,0.0019124135221740863,0.0
1.1399739583333264,0.0016406402737047902,0.0019009341814226414,0.0
1.1406249999999931,0.0016309872922776157,0.0018894162837693482,0.0
1.1412760416666599,0.0017435239491691117,0.0018778721722637645,0.0
1.1419270833333266,0.0016116202346041046,0.0018662528806832526,0.0
1.1425781249999933,0.0017241568914956006,0.0018546920789279592,0.0
1.14322916666666,0.0017144428152492674,0.0018430780027483456,0.0
1.1438802083333268,0.0017047287390029309,0.0018314807661102732,0.0
1.1445312499999936,0.0018172043010752682,0.0018199077066846981,0.0
1.1451822916666603,0.001929618768328447,0.0018083032048662113,0.0
1.145833333333327,0.0020419721407624637,0.0017966708069054997,0.0
1.1464843749999938,0.0019098851417399774,0.0017850122024149484,0.0
1.1471354166666605,0.0020222385141739976,0.0017734496389489186,0.0
1.1477864583333273,0.0020123411534701853,0.0017618597164661043,0.0
1.148437499999994,0.001880254154447706,0.0017503015159051854,0.0
1.1490885416666607,0.0017482282502443817,0.0017388338352050691,0.0
1.1497395833333275,0.0014940738025415456,0.0017274546128566034,0.0
1.1503906249999942,0.0014844208211143711,0.001716223558614925,0.0
1.151041666666661,0.0014747678396871966,0.0017050180630929581,0.0
1.1516927083333277,0.0015873044965786925,0.0016938387677506834,0.0
1.1523437499999944,0.0013332111436950185,0.0016826261950159845,0.0
1.1529947916666612,0.001323619257086999,0.0016715659993879475,0.0
1.153645833333328,0.001436217008797657,0.0016605387910217477,0.0
1.1542968749999947,0.00167094330400782,0.0016494863079929574,0.0
1.1549479166666614,0.0019055474095796658,0.001638349900380855,0.0
1.1555989583333282,0.0017734604105571865,0.001627131267545451,0.0
1.156249999999995,0.0018858137829912032,0.0016160144443525578,0.0
1.1569010416666616,0.0019981060606060613,0.00160487703747798,0.0
1.1575520833333284,0.001988147605083087,0.0015937180752623173,0.0
1.1582031249999951,0.001855999511241449,0.0015825972617352245,0.0
1.1588541666666619,0.0016017228739002957,0.0015715743515686113,0.0
1.1595052083333286,0.0015919477028347971,0.0015607096689339872,0.0
1.1601562499999953,0.0013377932551319645,0.0015498812930576362,0.0
1.160807291666662,0.001572519550342131,0.0015392130539717505,0.0
1.1614583333333288,0.0014405547409579687,0.0015284637320282478,0.0
1.1621093749999956,0.0013086510263929617,0.001517821258495222,0.0
1.1627604166666623,0.0012989980449657872,0.001507291586940073,0.0
1.163411458333329,0.001411534701857283,0.0014968205808982425,0.0
1.1640624999999958,0.001524010263929617,0.0014863547093660714,0.0
1.1647135416666625,0.0013920454545454548,0.001475901690170607,0.0
