time [ms],amplitude [mV] - raw,amplitude [mV] - filtered,trigger
0.0006510416666666666,0.019794721407624633,1.8031550966551474e-10,0.0
0.0013020833333333333,0.019916911045943304,2.2772623075381358e-09,0.0
0.001953125,0.020039100684261974,1.4403602484418619e-08,0.0
0.0026041666666666665,0.020039100684261974,6.15472743136369e-08,0.0
0.003255208333333333,0.020161290322580645,2.0200240133533506e-07,0.0
0.0039062499999999996,0.020161290322580645,5.478353252381599e-07,0.0
0.004557291666666666,0.020283479960899315,1.2867926353388375e-06,0.0
0.005208333333333333,0.020161290322580645,2.703423729619121e-06,0.0
0.005859375,0.020161290322580645,5.19773566012674e-06,0.0
0.006510416666666667,0.020161290322580645,9.300161732471805e-06,0.0
0.007161458333333334,0.020161290322580645,1.5682023220116314e-05,0.0
0.0078125,0.020161290322580645,2.5161013537421023e-05,0.0
0.008463541666666666,0.020161290322580645,3.870153597943103e-05,0.0
0.009114583333333332,0.020161290322580645,5.7409971507300915e-05,0.0
0.009765624999999998,0.020039100684261974,8.252514364026366e-05,0.0
0.010416666666666664,0.019794721407624633,0.0001154043873334927,0.0
0.01106770833333333,0.019794721407624633,0.00015750572015055527,0.0
0.011718749999999997,0.019794721407624633,0.00021036667514315134,0.0
0.012369791666666663,0.019916911045943304,0.000275580415827463,0.0
0.013020833333333329,0.019794721407624633,0.0003547698178993603,0.0
0.013671874999999995,0.019916911045943304,0.0004495602379343555,0.0
0.014322916666666661,0.019916911045943304,0.0005615516765521023,0.0
0.014973958333333327,0.020283479960899315,0.0006922910036057705,0.0
0.015624999999999993,0.020283479960899315,0.0008432448752504089,0.0
0.01627604166666666,0.020283479960899315,0.001015773932716353,0.0
0.01692708333333333,0.020405669599217986,0.0012111088016375754,0.0
0.017578124999999997,0.020405669599217986,0.0014303283078241748,0.0
0.018229166666666664,0.020405669599217986,0.0016743402253073733,0.0
0.018880208333333332,0.020283479960899315,0.0019438647917387273,0.0
0.01953125,0.019916911045943304,0.002239421146384753,0.0
0.020182291666666668,0.020039100684261974,0.002561316756952852,0.0
0.020833333333333336,0.019916911045943304,0.0029096398263349257,0.0
0.021484375000000003,0.019916911045943304,0.0032842546378573463,0.0
0.02213541666666667,0.019794721407624633,0.003684799795263281,0.0
0.02278645833333334,0.019794721407624633,0.00411068929996612,0.0
0.023437500000000007,0.019794721407624633,0.0045611163731556666,0.0
0.024088541666666675,0.020039100684261974,0.005035059898732346,0.0
0.024739583333333343,0.020161290322580645,0.005531293351686672,0.0
0.02539062500000001,0.020039100684261974,0.006048396074819545,0.0
0.026041666666666678,0.020283479960899315,0.006584766745666997,0.0
0.026692708333333346,0.020039100684261974,0.007138638825431824,0.0
0.027343750000000014,0.020283479960899315,0.007708097729120891,0.0
0.02799479166666668,0.020283479960899315,0.008291099426341706,0.0
0.02864583333333335,0.020161290322580645,0.00888549017617869,0.0
0.029296875000000017,0.020283479960899315,0.009489027102188198,0.0
0.029947916666666685,0.020161290322580645,0.010099399310766711,0.0
0.030598958333333353,0.020283479960899315,0.010714249255454073,0.0
0.03125000000000002,0.020161290322580645,0.01133119406407992,0.0
0.031901041666666685,0.020161290322580645,0.011947846567539284,0.0
0.03255208333333335,0.020039100684261974,0.012561835786127027,0.0
0.033203125000000014,0.019794721407624633,0.013170826640309977,0.0
0.03385416666666668,0.019916911045943304,0.013772538662529228,0.0
0.03450520833333334,0.019794721407624633,0.014364763507536037,0.0
0.03515625000000001,0.019916911045943304,0.01494538110321104,0.0
0.03580729166666667,0.019916911045943304,0.01551237434206507,0.0
0.036458333333333336,0.019916911045943304,0.016063842261229908,0.0
0.037109375,0.020039100684261974,0.01659801168597424,0.0
0.037760416666666664,0.020161290322580645,0.017113247327412113,0.0
0.03841145833333333,0.020283479960899315,0.01760806034239425,0.0
0.03906249999999999,0.020283479960899315,0.01808111538372853,0.0
0.03971354166666666,0.020283479960899315,0.018531236176795154,0.0
0.04036458333333332,0.020283479960899315,0.01895740964683956,0.0
0.041015624999999986,0.020405669599217986,0.01935878860585165,0.0
0.04166666666666665,0.020161290322580645,0.019734693008140045,0.0
0.042317708333333315,0.019916911045943304,0.020084609791754422,0.0
0.04296874999999998,0.019916911045943304,0.02040819131633603,0.0
0.043619791666666644,0.019794721407624633,0.020705252397867628,0.0
0.04427083333333331,0.019794721407624633,0.0209757659628721,0.0
0.04492187499999997,0.019794721407624633,0.021219857396974916,0.0
0.04557291666666664,0.019794721407624633,0.02143779771090364,0.0
0.0462239583333333,0.019794721407624633,0.02162999567497604,0.0
0.046874999999999965,0.020039100684261974,0.02179698908645653,0.0
0.04752604166666663,0.020161290322580645,0.021939435343983127,0.0
0.048177083333333294,0.020039100684261974,0.02205810151395821,0.0
0.04882812499999996,0.020161290322580645,0.022153854067017004,0.0
0.04947916666666662,0.020161290322580645,0.02222764842569225,0.0
0.05013020833333329,0.020283479960899315,0.0222805184248083,0.0
0.05078124999999995,0.020283479960899315,0.02231356577217349,0.0
0.051432291666666616,0.020039100684261974,0.02232794959448997,0.0
0.05208333333333328,0.020161290322580645,0.022324876134907558,0.0
0.052734374999999944,0.020039100684261974,0.0223055886389202,0.0
0.05338541666666661,0.020161290322580645,0.02227135745390214,0.0
0.05403645833333327,0.020039100684261974,0.022223470382689563,0.0
0.05468749999999994,0.019916911045943304,0.022163223347199234,0.0
0.0553385416666666,0.019916911045943304,0.022091911412787102,0.0
0.055989583333333266,0.019794721407624633,0.02201082020667525,0.0
0.05664062499999993,0.019916911045943304,0.021921217756689274,0.0
0.057291666666666595,0.019794721407624633,0.021824346786758448,0.0
0.05794270833333326,0.019916911045943304,0.02172141752019462,0.0
0.058593749999999924,0.019916911045943304,0.021613601048097605,0.0
0.05924479166666659,0.020039100684261974,0.021502023318988622,0.0
0.05989583333333325,0.020039100684261974,0.021387759802241373,0.0
0.06054687499999992,0.020161290322580645,0.021271830870238574,0.0
0.06119791666666658,0.020283479960899315,0.021155197930308397,0.0
0.061848958333333245,0.020283479960899315,0.021038760323019358,0.0
0.06249999999999991,0.020405669599217986,0.020923352990070955,0.0
0.06315104166666657,0.020283479960899315,0.020809744896215145,0.0
0.06380208333333325,0.020161290322580645,0.020698638162386505,0.0
0.06445312499999992,0.020039100684261974,0.02059066783455687,0.0
0.06510416666666659,0.019794721407624633,0.020486402182954663,0.0
0.06575520833333326,0.019916911045943304,0.020386343413797886,0.0
0.06640624999999993,0.019672531769305963,0.020290928690867703,0.0
0.0670572916666666,0.019794721407624633,0.02020053140030829,0.0
0.06770833333333327,0.019794721407624633,0.020115462629597,0.0
0.06835937499999994,0.019672531769305963,0.0200359728581893,0.0
0.06901041666666662,0.019794721407624633,0.019962253870337215,0.0
0.06966145833333329,0.020039100684261974,0.019894440902245878,0.0
0.07031249999999996,0.020161290322580645,0.019832615042682945,0.0
0.07096354166666663,0.020161290322580645,0.01977680592497501,0.0
0.0716145833333333,0.020283479960899315,0.019726994749328645,0.0
0.07226562499999997,0.020283479960899315,0.019683117640426094,0.0
0.07291666666666664,0.020283479960899315,0.019645069303375565,0.0
0.07356770833333331,0.020161290322580645,0.019612706913991723,0.0
0.07421874999999999,0.020039100684261974,0.019585854159691683,0.0
0.07486979166666666,0.020161290322580645,0.019564305330834288,0.0
0.07552083333333333,0.020039100684261974,0.019547829364019106,0.0
0.076171875,0.020039100684261974,0.019536173764609883,0.0
0.07682291666666667,0.019916911045943304,0.019529068363652907,0.0
0.07747395833333334,0.019916911045943304,0.01952622887467404,0.0
0.07812500000000001,0.019794721407624633,0.01952736021709536,0.0
0.07877604166666669,0.019916911045943304,0.019532159580488633,0.0
0.07942708333333336,0.019916911045943304,0.019540319220998213,0.0
0.08007812500000003,0.019916911045943304,0.019551529004161964,0.0
0.0807291666666667,0.020039100684261974,0.01956547872612587,0.0
0.08138020833333337,0.020039100684261974,0.019581860249450266,0.0
0.08203125000000004,0.020039100684261974,0.019600369485289246,0.0
0.08268229166666671,0.020039100684261974,0.019620708244577692,0.0
0.08333333333333338,0.020283479960899315,0.019642585967736464,0.0
0.08398437500000006,0.020405669599217986,0.019665721339482408,0.0
0.08463541666666673,0.020283479960899315,0.01968984380955224,0.0
0.0852864583333334,0.020405669599217986,0.01971469504517331,0.0
0.08593750000000007,0.020283479960899315,0.019740030316000662,0.0
0.08658854166666674,0.020283479960899315,0.019765619778974966,0.0
0.08723958333333341,0.020039100684261974,0.019791249613808973,0.0
0.08789062500000008,0.019794721407624633,0.01981672295122706,0.0
0.08854166666666675,0.019916911045943304,0.01984186052622803,0.0
0.08919270833333343,0.019794721407624633,0.019866500995704934,0.0
0.0898437500000001,0.019916911045943304,0.019890500900827446,0.0
0.09049479166666677,0.019794721407624633,0.01991373430808438,0.0
0.09114583333333344,0.019794721407624633,0.01993609219179819,0.0
0.09179687500000011,0.019916911045943304,0.019957481619965516,0.0
0.09244791666666678,0.020283479960899315,0.01997782480140213,0.0
0.09309895833333345,0.020405669599217986,0.019997058070704742,0.0
0.09375000000000012,0.020405669599217986,0.020015130915512894,0.0
0.0944010416666668,0.020527859237536656,0.020032005143802427,0.0
0.09505208333333347,0.020405669599217986,0.02004765423580539,0.0
0.09570312500000014,0.020405669599217986,0.02006206286394217,0.0
0.09635416666666681,0.020283479960899315,0.02007522652533406,0.0
0.09700520833333348,0.020161290322580645,0.020087151213810276,0.0
0.09765625000000015,0.020161290322580645,0.020097853055507865,0.0
0.09830729166666682,0.020039100684261974,0.0201073578435302,0.0
0.0989583333333335,0.020161290322580645,0.02011570043140027,0.0
0.09960937500000017,0.020039100684261974,0.020122923976037398,0.0
0.10026041666666684,0.019916911045943304,0.020129079046103157,0.0
0.10091145833333351,0.019794721407624633,0.020134222616761163,0.0
0.10156250000000018,0.020039100684261974,0.02013841696085769,0.0
0.10221354166666685,0.020161290322580645,0.020141728450581278,0.0
0.10286458333333352,0.020039100684261974,0.020144226318960425,0.0
0.1035156250000002,0.020161290322580645,0.020145981459452702,0.0
0.10416666666666687,0.020161290322580645,0.020147065327542398,0.0
0.10481770833333354,0.020283479960899315,0.020147548974658893,0.0
0.10546875000000021,0.020283479960899315,0.02014750222959567,0.0
0.10611979166666688,0.020283479960899315,0.02014699304084038,0.0
0.10677083333333355,0.020405669599217986,0.020146086984988237,0.0
0.10742187500000022,0.020283479960899315,0.02014484693298133,0.0
0.1080729166666669,0.020405669599217986,0.020143332856338396,0.0
0.10872395833333356,0.020283479960899315,0.02014160174918971,0.0
0.10937500000000024,0.020283479960899315,0.020139707636026363,0.0
0.11002604166666691,0.020161290322580645,0.020137701629955908,0.0
0.11067708333333358,0.019916911045943304,0.0201356319999405,0.0
0.11132812500000025,0.019916911045943304,0.020133544196745796,0.0
0.11197916666666692,0.019794721407624633,0.0201314807844238,0.0
0.11263020833333359,0.019916911045943304,0.020129481241391925,0.0
0.11328125000000026,0.019916911045943304,0.020127581633357955,0.0
0.11393229166666693,0.019916911045943304,0.02012581419969421,0.0
0.1145833333333336,0.020039100684261974,0.020124206914802045,0.0
0.11523437500000028,0.020283479960899315,0.020122783086694802,0.0
0.11588541666666695,0.020405669599217986,0.020121561055422767,0.0
0.11653645833333362,0.020405669599217986,0.020120554059259745,0.0
0.11718750000000029,0.020527859237536656,0.020119770324384337,0.0
0.11783854166666696,0.020405669599217986,0.020119213394240415,0.0
0.11848958333333363,0.020405669599217986,0.02011888266955544,0.0
0.1191406250000003,0.020283479960899315,0.02011877409797155,0.0
0.11979166666666698,0.020039100684261974,0.020118880933578335,0.0
0.12044270833333365,0.020039100684261974,0.02011919447752185,0.0
0.12109375000000032,0.019916911045943304,0.020119704713826254,0.0
0.12174479166666699,0.020039100684261974,0.02012040077847827,0.0
0.12239583333333366,0.019916911045943304,0.020121271242810466,0.0
0.12304687500000033,0.019794721407624633,0.020122304230514497,0.0
0.123697916666667,0.019916911045943304,0.020123487399365387,0.0
0.12434895833333368,0.020039100684261974,0.02012480781483354,0.0
0.12500000000000033,0.020161290322580645,0.020126251753819286,0.0
0.125651041666667,0.020161290322580645,0.02012780450280649,0.0
0.12630208333333365,0.020283479960899315,0.020129450222511013,0.0
0.1269531250000003,0.020283479960899315,0.02013117192871811,0.0
0.12760416666666696,0.020283479960899315,0.02013295160793718,0.0
0.12825520833333362,0.020283479960899315,0.020134770462154797,0.0
0.12890625000000028,0.020283479960899315,0.020136609258551607,0.0
0.12955729166666693,0.020283479960899315,0.020138448749050835,0.0
0.1302083333333336,0.020283479960899315,0.020140270123902636,0.0
0.13085937500000025,0.020405669599217986,0.020142055470173004,0.0
0.1315104166666669,0.020161290322580645,0.020143788215272778,0.0
0.13216145833333356,0.020161290322580645,0.020145453538530356,0.0
0.13281250000000022,0.020039100684261974,0.020147038722228335,0.0
0.13346354166666688,0.019916911045943304,0.02014853339955815,0.0
0.13411458333333354,0.019916911045943304,0.020149929659137585,0.0
0.1347656250000002,0.019916911045943304,0.02015122198366461,0.0
0.13541666666666685,0.020039100684261974,0.02015240702711634,0.0
0.1360677083333335,0.019916911045943304,0.02015348326529195,0.0
0.13671875000000017,0.020039100684261974,0.020154450573233937,0.0
0.13736979166666682,0.020039100684261974,0.020155309780216988,0.0
0.13802083333333348,0.020283479960899315,0.020156062242991667,0.0
0.13867187500000014,0.020405669599217986,0.020156709480051504,0.0
0.1393229166666668,0.020405669599217986,0.020157252919647487,0.0
0.13997395833333345,0.020527859237536656,0.020157693809763393,0.0
0.1406250000000001,0.020405669599217986,0.020158033309227445,0.0
0.14127604166666677,0.020405669599217986,0.020158272740245432,0.0
0.14192708333333343,0.020283479960899315,0.020158413951445756,0.0
0.14257812500000008,0.020039100684261974,0.020158459721066068,0.0
0.14322916666666674,0.020039100684261974,0.020158414120006057,0.0
0.1438802083333334,0.019916911045943304,0.020158282756651488,0.0
0.14453125000000006,0.019916911045943304,0.020158072847407726,0.0
0.1451822916666667,0.019916911045943304,0.02015779309508465,0.0
0.14583333333333337,0.019916911045943304,0.02015745339352096,0.0
0.14648437500000003,0.019916911045943304,0.02015706439967444,0.0
0.14713541666666669,0.019916911045943304,0.02015663702324506,0.0
0.14778645833333334,0.020161290322580645,0.02015618188348754,0.0
0.1484375,0.020039100684261974,0.020155708783638458,0.0
0.14908854166666666,0.020161290322580645,0.02015522625570903,0.0
0.14973958333333331,0.020283479960899315,0.02015474121905305,0.0
0.15039062499999997,0.020405669599217986,0.020154258778969463,0.0
0.15104166666666663,0.020283479960899315,0.020153782183174332,0.0
0.1516927083333333,0.020161290322580645,0.020153312942911422,0.0
0.15234374999999994,0.020161290322580645,0.020152851091936298,0.0
0.1529947916666666,0.020039100684261974,0.020152395519650878,0.0
0.15364583333333326,0.020039100684261974,0.020151944306725837,0.0
0.15429687499999992,0.020039100684261974,0.020151495011084406,0.0
0.15494791666666657,0.020039100684261974,0.020151044878635553,0.0
0.15559895833333323,0.019916911045943304,0.0201505909753734,0.0
0.1562499999999999,0.019794721407624633,0.02015013024666349,0.0
0.15690104166666655,0.019916911045943304,0.02014965950261295,0.0
0.1575520833333332,0.019794721407624633,0.020149175323110367,0.0
0.15820312499999986,0.019916911045943304,0.02014867388899069,0.0
0.15885416666666652,0.019916911045943304,0.02014815076594802,0.0
0.15950520833333318,0.020039100684261974,0.020147600679481376,0.0
0.16015624999999983,0.020039100684261974,0.02014701732298814,0.0
0.1608072916666665,0.020161290322580645,0.0201463932390816,0.0
0.16145833333333315,0.020405669599217986,0.020145719806856033,0.0
0.1621093749999998,0.020283479960899315,0.02014498736253838,0.0
0.16276041666666646,0.020405669599217986,0.02014418547492361,0.0
0.16341145833333312,0.020283479960899315,0.020143303374963614,0.0
0.16406249999999978,0.020283479960899315,0.020142330504809465,0.0
0.16471354166666644,0.020039100684261974,0.020141257125797566,0.0
0.1653645833333331,0.019916911045943304,0.02014007491096371,0.0
0.16601562499999975,0.019916911045943304,0.020138777440946984,0.0
0.1666666666666664,0.019794721407624633,0.020137360532413124,0.0
0.16731770833333307,0.019916911045943304,0.020135822362248385,0.0
0.16796874999999972,0.019794721407624633,0.02013416339300832,0.0
0.16861979166666638,0.019794721407624633,0.02013238613391599,0.0
0.16927083333333304,0.019794721407624633,0.02013049477954883,0.0
0.1699218749999997,0.020039100684261974,0.020128494765630202,0.0
0.17057291666666635,0.020161290322580645,0.020126392289127416,0.0
0.171223958333333,0.020161290322580645,0.020124193860819612,0.0
0.17187499999999967,0.020283479960899315,0.02012190596462249,0.0
0.17252604166666632,0.020283479960899315,0.020119534871892015,0.0
0.17317708333333298,0.020405669599217986,0.020117086621876185,0.0
0.17382812499999964,0.020161290322580645,0.020114567154615792,0.0
0.1744791666666663,0.020161290322580645,0.020111982563028208,0.0
0.17513020833333295,0.020161290322580645,0.020109339407312687,0.0
0.1757812499999996,0.020039100684261974,0.020106645023457433,0.0
0.17643229166666627,0.020161290322580645,0.020103907772426894,0.0
0.17708333333333293,0.020039100684261974,0.020101137203321753,0.0
0.17773437499999958,0.020039100684261974,0.020098344124054913,0.0
0.17838541666666624,0.019916911045943304,0.020095540581182642,0.0
0.1790364583333329,0.019916911045943304,0.020092739747646013,0.0
0.17968749999999956,0.019916911045943304,0.020089955713657546,0.0
0.1803385416666662,0.019916911045943304,0.020087203183420502,0.0
0.18098958333333287,0.020039100684261974,0.020084497097192434,0.0
0.18164062499999953,0.020039100684261974,0.020081852214872967,0.0
0.18229166666666619,0.020039100684261974,0.020079282706045448,0.0
0.18294270833333284,0.020161290322580645,0.020076801787272225,0.0
0.1835937499999995,0.020283479960899315,0.0200744214355464,0.0
0.18424479166666616,0.020405669599217986,0.02007215220226961,0.0
0.18489583333333282,0.020283479960899315,0.02007000315491999,0.0
0.18554687499999947,0.020405669599217986,0.02006798196319467,0.0
0.18619791666666613,0.020283479960899315,0.020066095117377024,0.0
0.1868489583333328,0.020283479960899315,0.020064348239835453,0.0
0.18749999999999944,0.020161290322580645,0.020062746439158483,0.0
0.1881510416666661,0.019794721407624633,0.02006129465098611,0.0
0.18880208333333276,0.019794721407624633,0.02005999789888291,0.0
0.18945312499999942,0.019672531769305963,0.020058861400895158,0.0
0.19010416666666607,0.019794721407624633,0.02005789046726461,0.0
0.19075520833333273,0.019794721407624633,0.020057090187306167,0.0
0.1914062499999994,0.019794721407624633,0.02005646495780791,0.0
0.19205729166666605,0.019916911045943304,0.020056017930918543,0.0
0.1927083333333327,0.020161290322580645,0.020055750459051207,0.0
0.19335937499999936,0.020283479960899315,0.020055661612271916,0.0
0.19401041666666602,0.020283479960899315,0.020055747846749582,0.0
0.19466145833333268,0.020405669599217986,0.0200560028887192,0.0
0.19531249999999933,0.020283479960899315,0.02005641785715271,0.0
0.195963541666666,0.020405669599217986,0.020056981602742083,0.0
0.19661458333333265,0.020283479960899315,0.020057681212619045,0.0
0.1972656249999993,0.020039100684261974,0.02005850261802623,0.0
0.19791666666666596,0.020039100684261974,0.020059431231901993,0.0
0.19856770833333262,0.019916911045943304,0.020060452533217216,0.0
0.19921874999999928,0.020039100684261974,0.020061552524901445,0.0
0.19986979166666594,0.019916911045943304,0.020062718030430672,0.0
0.2005208333333326,0.019916911045943304,0.02006393683544521,0.0
0.20117187499999925,0.019916911045943304,0.02006519769963039,0.0
0.2018229166666659,0.020039100684261974,0.02006649026530829,0.0
0.20247395833333257,0.020161290322580645,0.020067804894809887,0.0
0.20312499999999922,0.020039100684261974,0.0200691324835364,0.0
0.20377604166666588,0.020161290322580645,0.02007046429897037,0.0
0.20442708333333254,0.020161290322580645,0.02007179187638148,0.0
0.2050781249999992,0.020283479960899315,0.020073106979879782,0.0
0.20572916666666585,0.020161290322580645,0.02007440163145041,0.0
0.2063802083333325,0.020283479960899315,0.020075668209214404,0.0
0.20703124999999917,0.020405669599217986,0.020076899607961246,0.0
0.20768229166666582,0.020283479960899315,0.020078089451501517,0.0
0.20833333333333248,0.020405669599217986,0.02007923235079866,0.0
0.20898437499999914,0.020283479960899315,0.020080324198081003,0.0
0.2096354166666658,0.020161290322580645,0.02008136247245657,0.0
0.21028645833333245,0.020039100684261974,0.020082346516912673,0.0
0.2109374999999991,0.019916911045943304,0.020083277733644263,0.0
0.21158854166666577,0.019916911045943304,0.02008415964245909,0.0
0.21223958333333243,0.019794721407624633,0.02008499776496571,0.0
0.21289062499999908,0.019916911045943304,0.02008579932835656,0.0
0.21354166666666574,0.019916911045943304,0.02008657281333167,0.0
0.2141927083333324,0.019916911045943304,0.02008732739494903,0.0
0.21484374999999906,0.019916911045943304,0.02008807233669676,0.0
0.2154947916666657,0.020283479960899315,0.020088816394301368,0.0
0.21614583333333237,0.020405669599217986,0.020089567284731994,0.0
0.21679687499999903,0.020283479960899315,0.020090331288601843,0.0
0.21744791666666569,0.020405669599217986,0.020091113049566067,0.0
0.21809895833333234,0.020405669599217986,0.020091915589747947,0.0
0.218749999999999,0.020405669599217986,0.02009274051165259,0.0
0.21940104166666566,0.020283479960899315,0.020093588338561803,0.0
0.22005208333333232,0.020039100684261974,0.020094458938832882,0.0
0.22070312499999897,0.020039100684261974,0.020095351962855928,0.0
0.22135416666666563,0.019916911045943304,0.02009626720922064,0.0
0.2220052083333323,0.020039100684261974,0.020097204853233002,0.0
0.22265624999999895,0.019916911045943304,0.020098165513505656,0.0
0.2233072916666656,0.019916911045943304,0.020099150172808253,0.0
0.22395833333333226,0.019916911045943304,0.020100159986051386,0.0
0.22460937499999892,0.020039100684261974,0.020101196007576774,0.0
0.22526041666666557,0.020161290322580645,0.020102258873873586,0.0
0.22591145833333223,0.020039100684261974,0.020103348491230834,0.0
0.2265624999999989,0.020283479960899315,0.020104463781059158,0.0
0.22721354166666555,0.020161290322580645,0.020105602519081275,0.0
0.2278645833333322,0.020283479960899315,0.02010676128405711,0.0
0.22851562499999886,0.020283479960899315,0.02010793551832937,0.0
0.22916666666666552,0.020283479960899315,0.02010911969245049,0.0
0.22981770833333218,0.020283479960899315,0.02011030755786901,0.0
0.23046874999999883,0.020283479960899315,0.020111492465082186,0.0
0.2311197916666655,0.020283479960899315,0.02011266771973629,0.0
0.23177083333333215,0.020161290322580645,0.020113826948010893,0.0
0.2324218749999988,0.020161290322580645,0.020114964442080205,0.0
0.23307291666666546,0.020039100684261974,0.020116075453194167,0.0
0.23372395833333212,0.019916911045943304,0.02011715639856346,0.0
0.23437499999999878,0.019916911045943304,0.020118204951840316,0.0
0.23502604166666544,0.019794721407624633,0.020119219995161898,0.0
0.2356770833333321,0.019916911045943304,0.020120201426236984,0.0
0.23632812499999875,0.019916911045943304,0.02012114983709532,0.0
0.2369791666666654,0.020039100684261974,0.020122066105934453,0.0
0.23763020833333207,0.020039100684261974,0.020122950961187536,0.0
0.23828124999999872,0.020283479960899315,0.020123804580602755,0.0
0.23893229166666538,0.020405669599217986,0.020124626282671917,0.0
0.23958333333333204,0.020283479960899315,0.020125414361499925,0.0
0.2402343749999987,0.020405669599217986,0.020126166099353082,0.0
0.24088541666666535,0.020405669599217986,0.02012687795538294,0.0
0.241536458333332,0.020405669599217986,0.020127545896708978,0.0
0.24218749999999867,0.020283479960899315,0.02012816582783103,0.0
0.24283854166666533,0.020039100684261974,0.020128734068951843,0.0
0.24348958333333198,0.020039100684261974,0.020129247816707337,0.0
0.24414062499999864,0.019916911045943304,0.020129705508208976,0.0
0.2447916666666653,0.019916911045943304,0.020130107024412442,0.0
0.24544270833333195,0.019794721407624633,0.02013045370591864,0.0
0.2460937499999986,0.019794721407624633,0.020130748186868976,0.0
0.24674479166666527,0.019794721407624633,0.020130994069152926,0.0
0.24739583333333193,0.020039100684261974,0.020131195471539257,0.0
0.24804687499999858,0.020161290322580645,0.02013135651039563,0.0
0.24869791666666524,0.020161290322580645,0.0201314807946776,0.0
0.2493489583333319,0.020283479960899315,0.020131571022363893,0.0
0.24999999999999856,0.020283479960899315,0.020131628736590274,0.0
0.25065104166666524,0.020405669599217986,0.02013165426018401,0.0
0.2513020833333319,0.020161290322580645,0.02013164680027059,0.0
0.2519531249999986,0.020161290322580645,0.020131604693203048,0.0
0.2526041666666653,0.020161290322580645,0.020131525734897127,0.0
0.253255208333332,0.020161290322580645,0.020131407530096145,0.0
0.25390624999999867,0.020161290322580645,0.020131247811840256,0.0
0.25455729166666535,0.020161290322580645,0.020131044711807804,0.0
0.25520833333333204,0.020039100684261974,0.020130796978043375,0.0
0.2558593749999987,0.019916911045943304,0.020130504134512024,0.0
0.2565104166666654,0.019672531769305963,0.02013016656272837,0.0
0.2571614583333321,0.019794721407624633,0.02012978546972812,0.0
0.2578124999999988,0.019794721407624633,0.020129362709539265,0.0
0.25846354166666546,0.019916911045943304,0.0201289004601899,0.0
0.25911458333333215,0.019916911045943304,0.02012840080543944,0.0
0.25976562499999883,0.020039100684261974,0.020127865295269796,0.0
0.2604166666666655,0.020039100684261974,0.020127294553532238,0.0
0.2610677083333322,0.020161290322580645,0.020126687982244092,0.0
0.2617187499999989,0.020283479960899315,0.020126043594746,0.0
0.2623697916666656,0.020283479960899315,0.02012535799890571,0.0
0.26302083333333226,0.020405669599217986,0.02012462654300176,0.0
0.26367187499999895,0.020283479960899315,0.020123843622584518,0.0
0.26432291666666563,0.020283479960899315,0.020123003124582477,0.0
0.2649739583333323,0.020161290322580645,0.02012209896114459,0.0
0.265624999999999,0.019916911045943304,0.020121125626761074,0.0
0.2662760416666657,0.019794721407624633,0.020120078700254077,0.0
0.26692708333333237,0.019672531769305963,0.020118955209489395,0.0
0.26757812499999906,0.019794721407624633,0.020117753791590913,0.0
0.26822916666666574,0.019794721407624633,0.02011647462445432,0.0
0.2688802083333324,0.019794721407624633,0.020115119161051867,0.0
0.2695312499999991,0.019794721407624633,0.020113689733606995,0.0
0.2701822916666658,0.020039100684261974,0.02011218909747497,0.0
0.2708333333333325,0.020039100684261974,0.020110619976487144,0.0
0.27148437499999917,0.020039100684261974,0.020108984670538052,0.0
0.27213541666666585,0.020283479960899315,0.020107284778596704,0.0
0.27278645833333254,0.020161290322580645,0.020105521068199343,0.0
0.2734374999999992,0.020283479960899315,0.02010369350137621,0.0
0.2740885416666659,0.020161290322580645,0.020101801409820784,0.0
0.2747395833333326,0.020039100684261974,0.020099843789702487,0.0
0.2753906249999993,0.020161290322580645,0.020097819664107213,0.0
0.27604166666666596,0.020039100684261974,0.02009572845356633,0.0
0.27669270833333265,0.020039100684261974,0.020093570308633228,0.0
0.27734374999999933,0.020039100684261974,0.020091346379258683,0.0
0.277994791666666,0.019916911045943304,0.020089059007182764,0.0
0.2786458333333327,0.019794721407624633,0.020086711829887433,0.0
0.2792968749999994,0.019794721407624633,0.020084309781809563,0.0
0.2799479166666661,0.019916911045943304,0.020081858977988472,0.0
0.28059895833333276,0.019794721407624633,0.020079366482154113,0.0
0.28124999999999944,0.020039100684261974,0.02007683999022181,0.0
0.28190104166666613,0.019916911045943304,0.020074287477863183,0.0
0.2825520833333328,0.020039100684261974,0.020071716860627593,0.0
0.2832031249999995,0.020039100684261974,0.020069135704544157,0.0
0.2838541666666662,0.020283479960899315,0.020066551012269656,0.0
0.28450520833333287,0.020283479960899315,0.02006396910593313,0.0
0.28515624999999956,0.020283479960899315,0.020061395631201993,0.0
0.28580729166666624,0.020405669599217986,0.020058835698366636,0.0
0.2864583333333329,0.020283479960899315,0.020056294151735907,0.0
0.2871093749999996,0.020283479960899315,0.020053775935794108,0.0
0.2877604166666663,0.020039100684261974,0.020051286510741863,0.0
0.288411458333333,0.019794721407624633,0.020048832252386174,0.0
0.28906249999999967,0.019794721407624633,0.020046420753834907,0.0
0.28971354166666635,0.019794721407624633,0.02004406094839878,0.0
0.29036458333333304,0.019794721407624633,0.020041763011151962,0.0
0.2910156249999997,0.019794721407624633,0.0200395380543345,0.0
0.2916666666666664,0.019794721407624633,0.020037397670864168,0.0
0.2923177083333331,0.019794721407624633,0.020035353387382222,0.0
0.2929687499999998,0.020161290322580645,0.02003341608279726,0.0
0.29361979166666646,0.020283479960899315,0.02003159543418725,0.0
0.29427083333333315,0.020283479960899315,0.020029899470442293,0.0
0.29492187499999983,0.020405669599217986,0.020028334314021148,0.0
0.2955729166666665,0.020283479960899315,0.020026904151159236,0.0
0.2962239583333332,0.020405669599217986,0.020025611416371412,0.0
0.2968749999999999,0.020283479960899315,0.02002445714241494,0.0
0.2975260416666666,0.019916911045943304,0.020023441412402126,0.0
0.29817708333333326,0.020039100684261974,0.020022563836816137,0.0
0.29882812499999994,0.019916911045943304,0.0200218239658695,0.0
0.29947916666666663,0.020039100684261974,0.02002122156555493,0.0
0.3001302083333333,0.019916911045943304,0.020020756736144844,0.0
0.30078125,0.019794721407624633,0.020020429893051934,0.0
0.3014322916666667,0.019794721407624633,0.02002024163459487,0.0
0.30208333333333337,0.019916911045943304,0.020020192508228257,0.0
0.30273437500000006,0.020039100684261974,0.020020282691373202,0.0
0.30338541666666674,0.019916911045943304,0.020020511630427246,0.0
0.3040364583333334,0.020039100684261974,0.0200208776983885,0.0
0.3046875000000001,0.020039100684261974,0.020021377916420904,0.0
0.3053385416666668,0.020161290322580645,0.020022007760427413,0.0
0.3059895833333335,0.020161290322580645,0.020022761065488406,0.0
0.30664062500000017,0.020283479960899315,0.02002363004192552,0.0
0.30729166666666685,0.020283479960899315,0.02002460541257936,0.0
0.30794270833333354,0.020161290322580645,0.020025676670007857,0.0
0.3085937500000002,0.020283479960899315,0.020026832435152693,0.0
0.3092447916666669,0.020283479960899315,0.02002806088191377,0.0
0.3098958333333336,0.020161290322580645,0.0200293501894966,0.0
0.3105468750000003,0.020039100684261974,0.020030688991041528,0.0
0.31119791666666696,0.019916911045943304,0.020032066780912267,0.0
0.31184895833333365,0.019916911045943304,0.020033474228722172,0.0
0.31250000000000033,0.019794721407624633,0.020034903351706483,0.0
0.313151041666667,0.019916911045943304,0.020036347523003057,0.0
0.3138020833333337,0.019794721407624633,0.020037801324611058,0.0
0.3144531250000004,0.019916911045943304,0.02003926027687208,0.0
0.3151041666666671,0.019916911045943304,0.020040720487938965,0.0
0.31575520833333376,0.020283479960899315,0.020042178272921082,0.0
0.31640625000000044,0.020405669599217986,0.020043629805403952,0.0
0.31705729166666713,0.020405669599217986,0.020045070880567072,0.0
0.3177083333333338,0.020527859237536656,0.02004649686209436,0.0
0.3183593750000005,0.020405669599217986,0.020047902841689797,0.0
0.3190104166666672,0.020405669599217986,0.020049283986065602,0.0
0.31966145833333387,0.020283479960899315,0.020050636009296133,0.0
0.32031250000000056,0.020039100684261974,0.020051955689936177,0.0
0.32096354166666724,0.020039100684261974,0.02005324134465803,0.0
0.3216145833333339,0.019916911045943304,0.020054493174302055,0.0
0.3222656250000006,0.020039100684261974,0.020055713423066293,0.0
0.3229166666666673,0.019916911045943304,0.020056906335232032,0.0
0.323567708333334,0.019916911045943304,0.020058077933711064,0.0
0.32421875000000067,0.019916911045943304,0.020059235660784998,0.0
0.32486979166666735,0.020039100684261974,0.02006038792008477,0.0
0.32552083333333404,0.020161290322580645,0.020061543562174003,0.0
0.3261718750000007,0.020039100684261974,0.020062711368856158,0.0
0.3268229166666674,0.020161290322580645,0.02006389959280716,0.0
0.3274739583333341,0.020161290322580645,0.02006511558795113,0.0
0.3281250000000008,0.020283479960899315,0.020066365542429007,0.0
0.32877604166666746,0.020283479960899315,0.020067654319809065,0.0
0.32942708333333415,0.020283479960899315,0.020068985415707476,0.0
0.33007812500000083,0.020283479960899315,0.020070361029145042,0.0
0.3307291666666675,0.020283479960899315,0.020071782231862793,0.0
0.3313802083333342,0.020283479960899315,0.020073249206907978,0.0
0.3320312500000009,0.020161290322580645,0.020074761525141767,0.0
0.3326822916666676,0.020161290322580645,0.020076318427876997,0.0
0.33333333333333426,0.020039100684261974,0.020077919080700574,0.0
0.33398437500000094,0.019916911045943304,0.02007956276227025,0.0
0.33463541666666763,0.019916911045943304,0.020081248955576687,0.0
0.3352864583333343,0.019794721407624633,0.0200829773174305,0.0
0.335937500000001,0.019916911045943304,0.020084747517543116,0.0
0.3365885416666677,0.019916911045943304,0.020086558961806413,0.0
0.33723958333333437,0.019916911045943304,0.020088410438178,0.0
0.33789062500000105,0.020039100684261974,0.020090299737337277,0.0
0.33854166666666774,0.020283479960899315,0.02009222330161397,0.0
0.3391927083333344,0.020405669599217986,0.020094175958101534,0.0
0.3398437500000011,0.020405669599217986,0.0200961507989391,0.0
0.3404947916666678,0.020527859237536656,0.020098139261109288,0.0
0.3411458333333345,0.020405669599217986,0.0201001314198933,0.0
0.34179687500000117,0.020405669599217986,0.020102116466067896,0.0
0.34244791666666785,0.020161290322580645,0.020104083304763713,0.0
0.34309895833333454,0.020039100684261974,0.02010602119201388,0.0
0.3437500000000012,0.020039100684261974,0.020107920314131573,0.0
0.3444010416666679,0.019916911045943304,0.020109772226298256,0.0
0.3450520833333346,0.019916911045943304,0.02011157010204167,0.0
0.3457031250000013,0.019794721407624633,0.020113308784377042,0.0
0.34635416666666796,0.019794721407624633,0.020114984652363326,0.0
0.34700520833333465,0.019794721407624633,0.02011659532636213,0.0
0.34765625000000133,0.020039100684261974,0.02011813924613806,0.0
0.348307291666668,0.020161290322580645,0.02011961517806902,0.0
0.3489583333333347,0.020161290322580645,0.02012102173382475,0.0
0.3496093750000014,0.020283479960899315,0.020122356987437008,0.0
0.3502604166666681,0.020283479960899315,0.020123618248825203,0.0
0.35091145833333476,0.020405669599217986,0.02012480201235214,0.0
0.35156250000000144,0.020283479960899315,0.02012590407312347,0.0
0.35221354166666813,0.020161290322580645,0.020126919786407894,0.0
0.3528645833333348,0.020283479960899315,0.020127844423983323,0.0
0.3535156250000015,0.020161290322580645,0.02012867356597295,0.0
0.3541666666666682,0.020283479960899315,0.02012940347597665,0.0
0.35481770833333487,0.020161290322580645,0.020130031432042797,0.0
0.35546875000000155,0.020039100684261974,0.020130556001283995,0.0
0.35611979166666824,0.019916911045943304,0.02013097724170159,0.0
0.3567708333333349,0.019794721407624633,0.02013129679977137,0.0
0.3574218750000016,0.019916911045943304,0.020131517866611603,0.0
0.3580729166666683,0.019916911045943304,0.020131644975738456,0.0
0.358723958333335,0.020039100684261974,0.020131683665776758,0.0
0.35937500000000167,0.019916911045943304,0.020131640065561,0.0
0.36002604166666835,0.020039100684261974,0.020131520464327913,0.0
0.36067708333333504,0.020039100684261974,0.020131330911196774,0.0
0.3613281250000017,0.020283479960899315,0.02013107687187558,0.0
0.3619791666666684,0.020405669599217986,0.02013076297321624,0.0
0.3626302083333351,0.020283479960899315,0.020130392877083052,0.0
0.3632812500000018,0.020405669599217986,0.020129969317128186,0.0
0.36393229166666846,0.020405669599217986,0.020129494298149905,0.0
0.36458333333333515,0.020405669599217986,0.020128969425544013,0.0
0.36523437500000183,0.020161290322580645,0.020128396321136183,0.0
0.3658854166666685,0.019794721407624633,0.02012777707009446,0.0
0.3665364583333352,0.019794721407624633,0.020127114613837087,0.0
0.3671875000000019,0.019672531769305963,0.02012641298384693,0.0
0.3678385416666686,0.019794721407624633,0.02012567729994175,0.0
0.36848958333333526,0.019794721407624633,0.020124913525350098,0.0
0.36914062500000194,0.019794721407624633,0.020124128033575474,0.0
0.36979166666666863,0.019794721407624633,0.020123327067751752,0.0
0.3704427083333353,0.020039100684261974,0.02012251616725791,0.0
0.371093750000002,0.020161290322580645,0.020121699626401746,0.0
0.3717447916666687,0.020039100684261974,0.0201208800518697,0.0
0.37239583333333537,0.020283479960899315,0.02012005807949621,0.0
0.37304687500000205,0.020161290322580645,0.020119232280214564,0.0
0.37369791666666874,0.020283479960899315,0.020118399251196066,0.0
0.3743489583333354,0.020161290322580645,0.020117553869563393,0.0
0.3750000000000021,0.020161290322580645,0.02011668967342458,0.0
0.3756510416666688,0.020161290322580645,0.020115799322845702,0.0
0.3763020833333355,0.020039100684261974,0.02011487508921324,0.0
0.37695312500000216,0.020039100684261974,0.020113909326608254,0.0
0.37760416666666885,0.019916911045943304,0.020112894885946458,0.0
0.37825520833333554,0.019916911045943304,0.020111825438762682,0.0
0.3789062500000022,0.019794721407624633,0.02011069568619899,0.0
0.3795572916666689,0.019794721407624633,0.020109501440027124,0.0
0.3802083333333356,0.019916911045943304,0.02010823957510118,0.0
0.3808593750000023,0.019794721407624633,0.020106907869908017,0.0
0.38151041666666896,0.019916911045943304,0.020105504770257344,0.0
0.38216145833333565,0.019916911045943304,0.020104029117946527,0.0
0.38281250000000233,0.020039100684261974,0.02010247988223464,0.0
0.383463541666669,0.020039100684261974,0.020100855929444852,0.0
0.3841145833333357,0.020283479960899315,0.020099155865530467,0.0
0.3847656250000024,0.020405669599217986,0.020097377984893208,0.0
0.38541666666666907,0.020283479960899315,0.020095520357401336,0.0
0.38606770833333576,0.020283479960899315,0.02009358107191053,0.0
0.38671875000000244,0.020283479960899315,0.020091558617484975,0.0
0.3873697916666691,0.020161290322580645,0.02008945234578974,0.0
0.3880208333333358,0.020039100684261974,0.020087262945762716,0.0
0.3886718750000025,0.019672531769305963,0.020084992862256925,0.0
0.3893229166666692,0.019794721407624633,0.020082646584645838,0.0
0.38997395833333587,0.019672531769305963,0.020080230734473195,0.0
0.39062500000000255,0.019794721407624633,0.020077753917436998,0.0
0.39127604166666924,0.019672531769305963,0.020075226361130554,0.0
0.3919270833333359,0.019794721407624633,0.020072659397668627,0.0
0.3925781250000026,0.019794721407624633,0.02007006485741567,0.0
0.3932291666666693,0.020039100684261974,0.02006745443649085,0.0
0.393880208333336,0.020283479960899315,0.020064839105294722,0.0
0.39453125000000266,0.020161290322580645,0.020062228635855574,0.0
0.39518229166666935,0.020405669599217986,0.020059631320392037,0.0
0.39583333333333603,0.020283479960899315,0.02005705391797126,0.0
0.3964843750000027,0.020405669599217986,0.020054501820506828,0.0
0.3971354166666694,0.020283479960899315,0.0200519793992905,0.0
0.3977864583333361,0.020039100684261974,0.020049490475719075,0.0
0.3984375000000028,0.020039100684261974,0.02004703884106804,0.0
0.39908854166666946,0.019916911045943304,0.02004462873531369,0.0
0.39973958333333615,0.020039100684261974,0.020042265205435537,0.0
0.40039062500000283,0.019916911045943304,0.020039954303624357,0.0
0.4010416666666695,0.019794721407624633,0.02003770312749361,0.0
0.4016927083333362,0.019794721407624633,0.020035519719355934,0.0
0.4023437500000029,0.019916911045943304,0.020033412836286596,0.0
0.40299479166666957,0.019916911045943304,0.020031391608208465,0.0
0.40364583333333626,0.019916911045943304,0.020029465124963577,0.0
0.40429687500000294,0.020039100684261974,0.020027642007983924,0.0
0.4049479166666696,0.020039100684261974,0.020025930014965904,0.0
0.4055989583333363,0.020161290322580645,0.02002433571385606,0.0
0.406250000000003,0.020039100684261974,0.020022864254098924,0.0
0.4069010416666697,0.020161290322580645,0.020021519249758816,0.0
0.40755208333333637,0.020283479960899315,0.020020302771856284,0.0
0.40820312500000305,0.020161290322580645,0.020019215440463162,0.0
0.40885416666666974,0.020283479960899315,0.02001825661010248,0.0
0.4095052083333364,0.020161290322580645,0.02001742463707794,0.0
0.4101562500000031,0.020161290322580645,0.02001671720285115,0.0
0.4108072916666698,0.019916911045943304,0.020016131655236618,0.0
0.4114583333333365,0.019794721407624633,0.02001566531812185,0.0
0.41210937500000316,0.019794721407624633,0.02001531571006756,0.0
0.41276041666666985,0.019794721407624633,0.020015080618862015,0.0
0.41341145833333653,0.019794721407624633,0.020014958013148027,0.0
0.4140625000000032,0.019794721407624633,0.020014945814428472,0.0
0.4147135416666699,0.019794721407624633,0.02001504157583953,0.0
0.4153645833333366,0.019916911045943304,0.020015242115851643,0.0
0.4160156250000033,0.020161290322580645,0.020015543154078067,0.0
0.41666666666666996,0.020283479960899315,0.020015939006619105,0.0
0.41731770833333665,0.020161290322580645,0.020016422409791484,0.0
0.41796875000000333,0.020405669599217986,0.020016984526579934,0.0
0.41861979166667,0.020283479960899315,0.020017615148201832,0.0
0.4192708333333367,0.020283479960899315,0.02001830306572086,0.0
0.4199218750000034,0.020161290322580645,0.020019036566672116,0.0
0.42057291666667007,0.020039100684261974,0.020019803994989892,0.0
0.42122395833333676,0.020161290322580645,0.020020594300518862,0.0
0.42187500000000344,0.019916911045943304,0.020021397512294613,0.0
0.4225260416666701,0.020039100684261974,0.020022205094691554,0.0
0.4231770833333368,0.019916911045943304,0.020023010168792637,0.0
0.4238281250000035,0.019794721407624633,0.020023807594541962,0.0
0.4244791666666702,0.019794721407624633,0.020024593914913628,0.0
0.42513020833333687,0.020039100684261974,0.020025367166917833,0.0
0.42578125000000355,0.020161290322580645,0.020026126582957157,0.0
0.42643229166667024,0.020039100684261974,0.02002687224286746,0.0
0.4270833333333369,0.020161290322580645,0.02002760475377192,0.0
0.4277343750000036,0.020161290322580645,0.020028325007556472,0.0
0.4283854166666703,0.020283479960899315,0.020029034028290593,0.0
0.429036458333337,0.020161290322580645,0.02002973290837036,0.0
0.42968750000000366,0.020283479960899315,0.020030422830186297,0.0
0.43033854166667035,0.020283479960899315,0.020031105161699227,0.0
0.43098958333333703,0.020283479960899315,0.020031781607539042,0.0
0.4316406250000037,0.020283479960899315,0.020032454398748352,0.0
0.4322916666666704,0.020161290322580645,0.020033126503685272,0.0
0.4329427083333371,0.020161290322580645,0.02003380183399412,0.0
0.4335937500000038,0.020039100684261974,0.02003448541055928,0.0
0.43424479166667046,0.019672531769305963,0.020035183450292173,0.0
0.43489583333333715,0.019794721407624633,0.02003590332997881,0.0
0.43554687500000383,0.019672531769305963,0.020036653382349626,0.0
0.4361979166666705,0.019916911045943304,0.020037442504716174,0.0
0.4368489583333372,0.019794721407624633,0.02003827961254522,0.0
0.4375000000000039,0.019916911045943304,0.020039173012157446,0.0
0.43815104166667057,0.019916911045943304,0.020040129772085583,0.0
0.43880208333333726,0.020283479960899315,0.02004115515662052,0.0
0.43945312500000394,0.020283479960899315,0.02004225217826321,0.0
0.4401041666666706,0.020283479960899315,0.02004342132971555,0.0
0.4407552083333373,0.020405669599217986,0.020044660541025928,0.0
0.441406250000004,0.020405669599217986,0.020045965366581233,0.0
0.4420572916666707,0.020405669599217986,0.020047329371228887,0.0
0.44270833333333737,0.020283479960899315,0.020048744669722486,0.0
0.44335937500000405,0.020039100684261974,0.020050202560222306,0.0
0.44401041666667074,0.019916911045943304,0.020051694170177176,0.0
0.4446614583333374,0.019794721407624633,0.020053211016147727,0.0
0.4453125000000041,0.019916911045943304,0.020054745390090507,0.0
0.4459635416666708,0.019794721407624633,0.020056290529095116,0.0
0.4466145833333375,0.019794721407624633,0.02005784057979383,0.0
0.44726562500000416,0.019794721407624633,0.02005939039987342,0.0
0.44791666666667085,0.020039100684261974,0.020060935244823434,0.0
0.44856770833333753,0.020161290322580645,0.02006247039573744,0.0
0.4492187500000042,0.020161290322580645,0.020063990803401956,0.0
0.4498697916666709,0.020283479960899315,0.020065490828660867,0.0
0.4505208333333376,0.020161290322580645,0.020066964130655784,0.0
0.4511718750000043,0.020283479960899315,0.02006840371128501,0.0
0.45182291666667096,0.020161290322580645,0.02006980209196916,0.0
0.45247395833333764,0.020161290322580645,0.02007115158377731,0.0
0.45312500000000433,0.020283479960899315,0.02007244460866745,0.0
0.453776041666671,0.020161290322580645,0.020073674035879407,0.0
0.4544270833333377,0.020161290322580645,0.020074833510242123,0.0
0.4550781250000044,0.020039100684261974,0.02007591775460336,0.0
0.45572916666667107,0.020039100684261974,0.020076922821069376,0.0
0.45638020833333776,0.019916911045943304,0.02007784625994735,0.0
0.45703125000000444,0.019794721407624633,0.0200786871801348,0.0
0.4576822916666711,0.019916911045943304,0.020079446183463964,0.0
0.4583333333333378,0.019794721407624633,0.02008012516775581,0.0
0.4589843750000045,0.019916911045943304,0.020080727014071254,0.0
0.4596354166666712,0.019916911045943304,0.020081255194556464,0.0
0.46028645833333787,0.020039100684261974,0.02008171334805266,0.0
0.46093750000000455,0.020039100684261974,0.020082104873584312,0.0
0.46158854166667124,0.020283479960899315,0.02008243259003986,0.0
0.4622395833333379,0.020405669599217986,0.02008269850618412,0.0
0.4628906250000046,0.020283479960899315,0.02008290374146366,0.0
0.4635416666666713,0.020405669599217986,0.02008304862347201,0.0
0.464192708333338,0.020405669599217986,0.020083132954174212,0.0
0.46484375000000466,0.020283479960899315,0.020083156405275245,0.0
0.46549479166667135,0.020161290322580645,0.02008311898922866,0.0
0.46614583333333803,0.019916911045943304,0.020083021540660186,0.0
0.4667968750000047,0.019794721407624633,0.020082866126010537,0.0
0.4674479166666714,0.019672531769305963,0.0200826562946015,0.0
0.4680989583333381,0.019794721407624633,0.020082397106908456,0.0
0.4687500000000048,0.019794721407624633,0.02008209492409682,0.0
0.46940104166667146,0.019794721407624633,0.020081756998518725,0.0
0.47005208333333814,0.019794721407624633,0.0200813909389322,0.0
0.47070312500000483,0.020039100684261974,0.02008100412559255,0.0
0.4713541666666715,0.020161290322580645,0.020080603142174556,0.0
0.4720052083333382,0.020161290322580645,0.020080193294563117,0.0
0.4726562500000049,0.020283479960899315,0.020079778284460975,0.0
0.47330729166667157,0.020283479960899315,0.020079360078592054,0.0
0.47395833333333826,0.020405669599217986,0.02007893897774546,0.0
0.47460937500000494,0.020283479960899315,0.02007851386666882,0.0
0.4752604166666716,0.020039100684261974,0.020078082609687683,0.0
0.4759114583333383,0.020039100684261974,0.020077642531130393,0.0
0.476562500000005,0.019916911045943304,0.0200771908934422,0.0
0.4772135416666717,0.020039100684261974,0.020076725289240992,0.0
0.47786458333333837,0.019916911045943304,0.020076243902066367,0.0
0.47851562500000505,0.019916911045943304,0.02007574563356214,0.0
0.47916666666667174,0.019916911045943304,0.02007523011520606,0.0
0.4798177083333384,0.019794721407624633,0.02007469762302931,0.0
0.4804687500000051,0.019916911045943304,0.020074148910278877,0.0
0.4811197916666718,0.019794721407624633,0.020073584973687806,0.0
0.4817708333333385,0.019916911045943304,0.0200730067736221,0.0
0.48242187500000516,0.019916911045943304,0.020072414934174335,0.0
0.48307291666667185,0.020039100684261974,0.02007180945430991,0.0
0.48372395833333853,0.020039100684261974,0.02007118946520266,0.0
0.4843750000000052,0.020161290322580645,0.020070553068432077,0.0
0.4850260416666719,0.020283479960899315,0.02006989728259436,0.0
0.4856770833333386,0.020283479960899315,0.02006921811770266,0.0
0.4863281250000053,0.020405669599217986,0.020068510789229967,0.0
0.48697916666667196,0.020283479960899315,0.02006777007016725,0.0
0.48763020833333864,0.020283479960899315,0.020066990758135478,0.0
0.48828125000000533,0.020039100684261974,0.02006616821025327,0.0
0.488932291666672,0.019794721407624633,0.02006529887479316,0.0
0.4895833333333387,0.019794721407624633,0.020064380730553496,0.0
0.4902343750000054,0.019672531769305963,0.020063413546668272,0.0
0.49088541666667207,0.019794721407624633,0.020062398910487108,0.0
0.49153645833333875,0.019672531769305963,0.020061340026168984,0.0
0.49218750000000544,0.019794721407624633,0.02006024133020365,0.0
0.4928385416666721,0.019794721407624633,0.020059107987587168,0.0
0.4934895833333388,0.020161290322580645,0.020057945336268108,0.0
0.4941406250000055,0.020161290322580645,0.020056758355883362,0.0
0.4947916666666722,0.020161290322580645,0.0200555512451163,0.0
0.49544270833333887,0.020283479960899315,0.02005432717472561,0.0
0.49609375000000555,0.020283479960899315,0.020053088238887212,0.0
0.49674479166667224,0.020283479960899315,0.02005183558897889,0.0
0.4973958333333389,0.020161290322580645,0.020050569716092745,0.0
0.4980468750000056,0.020039100684261974,0.020049290833780084,0.0
0.4986979166666723,0.020039100684261974,0.02004799929425411,0.0
0.499348958333339,0.019916911045943304,0.020046695965376844,0.0
0.5000000000000057,0.020039100684261974,0.020045382512512176,0.0
0.5006510416666723,0.019916911045943304,0.020044061559973087,0.0
0.5013020833333389,0.019794721407624633,0.020042736733229562,0.0
0.5019531250000056,0.019794721407624633,0.020041412590703057,0.0
0.5026041666666722,0.019916911045943304,0.02004009444832465,0.0
0.5032552083333388,0.020039100684261974,0.020038788107869656,0.0
0.5039062500000054,0.019916911045943304,0.020037499528954412,0.0
0.5045572916666721,0.020039100684261974,0.02003623450267654,0.0
0.5052083333333387,0.020039100684261974,0.020034998370834965,0.0
0.5058593750000053,0.020161290322580645,0.020033795811305512,0.0
0.506510416666672,0.020039100684261974,0.02003263070157573,0.0
0.5071614583333386,0.020283479960899315,0.020031506069926406,0.0
0.5078125000000052,0.020283479960899315,0.020030424137630395,0.0
0.5084635416666718,0.020161290322580645,0.020029386452793053,0.0
0.5091145833333385,0.020283479960899315,0.02002839411167266,0.0
0.5097656250000051,0.020161290322580645,0.02002744804625001,0.0
0.5104166666666717,0.020161290322580645,0.020026549341276217,0.0
0.5110677083333384,0.020039100684261974,0.020025699541748144,0.0
0.511718750000005,0.019916911045943304,0.02002490091227294,0.0
0.5123697916666716,0.019916911045943304,0.020024156607994822,0.0
0.5130208333333383,0.019794721407624633,0.02002347072158101,0.0
0.5136718750000049,0.019794721407624633,0.02002284818681925,0.0
0.5143229166666715,0.019794721407624633,0.02002229454021488,0.0
0.5149739583333381,0.019794721407624633,0.02002181556054127,0.0
0.5156250000000048,0.019794721407624633,0.020021416821098776,0.0
0.5162760416666714,0.020161290322580645,0.020021103200661073,0.0
0.516927083333338,0.020283479960899315,0.020020878413646703,0.0
0.5175781250000047,0.020283479960899315,0.0200207446401527,0.0
0.5182291666666713,0.020405669599217986,0.02002070233644601,0.0
0.5188802083333379,0.020283479960899315,0.020020750266453696,0.0
0.5195312500000046,0.020283479960899315,0.020020885739176462,0.0
0.5201822916666712,0.020161290322580645,0.02002110499712571,0.0
0.5208333333333378,0.020039100684261974,0.02002140368105979,0.0
0.5214843750000044,0.020039100684261974,0.020021777291725575,0.0
0.5221354166666711,0.019916911045943304,0.02002222157929992,0.0
0.5227864583333377,0.019916911045943304,0.020022732813340695,0.0
0.5234375000000043,0.019916911045943304,0.02002330791227378,0.0
0.524088541666671,0.019794721407624633,0.02002394443364616,0.0
0.5247395833333376,0.019794721407624633,0.020024640440197566,0.0
0.5253906250000042,0.019916911045943304,0.020025394261847233,0.0
0.5260416666666708,0.019916911045943304,0.02002620418015325,0.0
0.5266927083333375,0.019916911045943304,0.020027068076539964,0.0
0.5273437500000041,0.020161290322580645,0.02002798309492495,0.0
0.5279947916666707,0.020039100684261974,0.02002894536525807,0.0
0.5286458333333374,0.020161290322580645,0.020029949825498147,0.0
0.529296875000004,0.020161290322580645,0.020030990165215975,0.0
0.5299479166666706,0.020283479960899315,0.02003205889437298,0.0
0.5305989583333373,0.020405669599217986,0.020033147530801317,0.0
0.5312500000000039,0.020283479960899315,0.020034246902586435,0.0
0.5319010416666705,0.020283479960899315,0.020035347558280427,0.0
0.5325520833333371,0.020161290322580645,0.020036440256218428,0.0
0.5332031250000038,0.020161290322580645,0.0200375164779665,0.0
0.5338541666666704,0.020039100684261974,0.020038568902253643,0.0
0.534505208333337,0.019916911045943304,0.020039591785579965,0.0
0.5351562500000037,0.019916911045943304,0.020040581209160586,0.0
0.5358072916666703,0.019794721407624633,0.020041535164049464,0.0
0.5364583333333369,0.019916911045943304,0.020042453463849287,0.0
0.5371093750000036,0.019794721407624633,0.020043337498177233,0.0
0.5377604166666702,0.019916911045943304,0.020044189861182046,0.0
0.5384114583333368,0.020039100684261974,0.02004501390182943,0.0
0.5390625000000034,0.020283479960899315,0.02004581325263257,0.0
0.5397135416666701,0.020405669599217986,0.020046591408667925,0.0
0.5403645833333367,0.020283479960899315,0.020047351436108838,0.0
0.5410156250000033,0.020405669599217986,0.02004809586499271,0.0
0.54166666666667,0.020405669599217986,0.020048826769897474,0.0
0.5423177083333366,0.020405669599217986,0.0200495460024131,0.0
0.5429687500000032,0.020283479960899315,0.02005025552851152,0.0
0.5436197916666698,0.020039100684261974,0.02005095781940476,0.0
0.5442708333333365,0.020039100684261974,0.020051656228118078,0.0
0.5449218750000031,0.019916911045943304,0.020052355271992135,0.0
0.5455729166666697,0.019916911045943304,0.02005306075689585,0.0
0.5462239583333364,0.019794721407624633,0.020053779716373777,0.0
0.546875000000003,0.019794721407624633,0.020054520171764977,0.0
0.5475260416666696,0.019794721407624633,0.020055290736063307,0.0
0.5481770833333363,0.020039100684261974,0.02005610009679145,0.0
0.5488281250000029,0.020161290322580645,0.020056956435265557,0.0
0.5494791666666695,0.020161290322580645,0.020057866865648217,0.0
0.5501302083333361,0.020283479960899315,0.020058836981648967,0.0
0.5507812500000028,0.020161290322580645,0.020059870568629398,0.0
0.5514322916666694,0.020283479960899315,0.020060969494086204,0.0
0.552083333333336,0.020283479960899315,0.020062133756996225,0.0
0.5527343750000027,0.020283479960899315,0.020063361665438862,0.0
0.5533854166666693,0.020283479960899315,0.02006465011405573,0.0
0.5540364583333359,0.020161290322580645,0.02006599493299241,0.0
0.5546875000000026,0.020283479960899315,0.0200673912732102,0.0
0.5553385416666692,0.020161290322580645,0.020068833989974232,0.0
0.5559895833333358,0.020039100684261974,0.020070317992851736,0.0
0.5566406250000024,0.019916911045943304,0.0200718385346162,0.0
0.5572916666666691,0.019916911045943304,0.020073391404893736,0.0
0.5579427083333357,0.019916911045943304,0.020074972994528716,0.0
0.5585937500000023,0.019794721407624633,0.02007658021835006,0.0
0.559244791666669,0.020039100684261974,0.020078210312775242,0.0
0.5598958333333356,0.019916911045943304,0.02007986054439453,0.0
0.5605468750000022,0.020039100684261974,0.02008152787789598,0.0
0.5611979166666689,0.020039100684261974,0.020083208654470525,0.0
0.5618489583333355,0.020283479960899315,0.020084898323207798,0.0
0.5625000000000021,0.020405669599217986,0.0200865912628591,0.0
0.5631510416666687,0.020283479960899315,0.02008828073529063,0.0
0.5638020833333354,0.020405669599217986,0.02008995900265365,0.0
0.564453125000002,0.020405669599217986,0.020091617606565828,0.0
0.5651041666666686,0.020405669599217986,0.02009324777560813,0.0
0.5657552083333353,0.020161290322580645,0.020094840916382993,0.0
0.5664062500000019,0.019916911045943304,0.020096389133058987,0.0
0.5670572916666685,0.019916911045943304,0.020097885695833522,0.0
0.5677083333333351,0.019794721407624633,0.020099325366457213,0.0
0.5683593750000018,0.019916911045943304,0.02010070451755062,0.0
0.5690104166666684,0.019794721407624633,0.02010202103797635,0.0
0.569661458333335,0.019794721407624633,0.020103274060889676,0.0
0.5703125000000017,0.019794721407624633,0.02010446356513813,0.0
0.5709635416666683,0.020039100684261974,0.020105589897352148,0.0
0.5716145833333349,0.020161290322580645,0.020106653267901693,0.0
0.5722656250000016,0.020039100684261974,0.02010765329204492,0.0
0.5729166666666682,0.020283479960899315,0.02010858864822472,0.0
0.5735677083333348,0.020283479960899315,0.020109456895725564,0.0
0.5742187500000014,0.020405669599217986,0.02011025446356304,0.0
0.5748697916666681,0.020283479960899315,0.020110976809956594,0.0
0.5755208333333347,0.020161290322580645,0.020111618736466594,0.0
0.5761718750000013,0.020161290322580645,0.020112174810124433,0.0
0.576822916666668,0.020039100684261974,0.020112639820821905,0.0
0.5774739583333346,0.020161290322580645,0.020113009202534206,0.0
0.5781250000000012,0.020039100684261974,0.020113279372991053,0.0
0.5787760416666679,0.020039100684261974,0.020113447976041577,0.0
0.5794270833333345,0.019916911045943304,0.02011351402596145,0.0
0.5800781250000011,0.019916911045943304,0.020113477951568644,0.0
0.5807291666666677,0.019916911045943304,0.020113341534436863,0.0
0.5813802083333344,0.019794721407624633,0.020113107741831972,0.0
0.582031250000001,0.019916911045943304,0.020112780466716825,0.0
0.5826822916666676,0.019916911045943304,0.020112364196334907,0.0
0.5833333333333343,0.020039100684261974,0.020111863641028505,0.0
0.5839843750000009,0.020039100684261974,0.020111283367248937,0.0
0.5846354166666675,0.020161290322580645,0.020110627482631118,0.0
0.5852864583333341,0.020161290322580645,0.02010989941194396,0.0
0.5859375000000008,0.020161290322580645,0.02010910178721067,0.0
0.5865885416666674,0.020283479960899315,0.020108236458235205,0.0
0.587239583333334,0.020283479960899315,0.020107304615847667,0.0
0.5878906250000007,0.020283479960899315,0.020106307014740712,0.0
0.5885416666666673,0.020161290322580645,0.02010524427902799,0.0
0.5891927083333339,0.019794721407624633,0.020104117256880057,0.0
0.5898437500000006,0.019794721407624633,0.020102927359319366,0.0
0.5904947916666672,0.019672531769305963,0.020101676794781854,0.0
0.5911458333333338,0.019794721407624633,0.02010036862601658,0.0
0.5917968750000004,0.019672531769305963,0.020099006629188648,0.0
0.5924479166666671,0.019672531769305963,0.020097594987404897,0.0
0.5930989583333337,0.019794721407624633,0.020096137871728013,0.0
0.5937500000000003,0.020039100684261974,0.020094638964995203,0.0
0.594401041666667,0.020161290322580645,0.02009310099618643,0.0
0.5950520833333336,0.020161290322580645,0.020091525371373264,0.0
0.5957031250000002,0.020283479960899315,0.020089911979032152,0.0
0.5963541666666669,0.020283479960899315,0.02008825920646947,0.0
0.5970052083333335,0.020283479960899315,0.020086564160337727,0.0
0.5976562500000001,0.020161290322580645,0.02008482305654353,0.0
0.5983072916666667,0.019916911045943304,0.020083031723199925,0.0
0.5989583333333334,0.020039100684261974,0.020081186137587876,0.0
0.599609375,0.019916911045943304,0.02007928291090522,0.0
0.6002604166666666,0.020039100684261974,0.02007731966014416,0.0
0.6009114583333333,0.019916911045943304,0.020075295250135048,0.0
0.6015624999999999,0.019916911045943304,0.020073209918171683,0.0
0.6022135416666665,0.019794721407624633,0.020071065297057593,0.0
0.6028645833333331,0.019916911045943304,0.020068864343357893,0.0
0.6035156249999998,0.019916911045943304,0.020066611176118774,0.0
0.6041666666666664,0.019916911045943304,0.020064310845075574,0.0
0.604817708333333,0.020039100684261974,0.02006196906296793,0.0
0.6054687499999997,0.020039100684261974,0.020059591940126756,0.0
0.6061197916666663,0.020161290322580645,0.0200571857554533,0.0
0.6067708333333329,0.020161290322580645,0.020054756793104974,0.0
0.6074218749999996,0.020161290322580645,0.020052311265586705,0.0
0.6080729166666662,0.020283479960899315,0.02004985532968419,0.0
0.6087239583333328,0.020161290322580645,0.02004739518758749,0.0
0.6093749999999994,0.020283479960899315,0.02004493725682742,0.0
0.6100260416666661,0.020161290322580645,0.0200424883870398,0.0
0.6106770833333327,0.020161290322580645,0.020040056096303688,0.0
0.6113281249999993,0.020039100684261974,0.020037648795216904,0.0
0.611979166666666,0.019794721407624633,0.02003527596099455,0.0
0.6126302083333326,0.019794721407624633,0.020032948215474747,0.0
0.6132812499999992,0.019672531769305963,0.02003067725827187,0.0
0.6139322916666659,0.019794721407624633,0.020028475623738277,0.0
0.6145833333333325,0.019672531769305963,0.020026356267578416,0.0
0.6152343749999991,0.019672531769305963,0.020024332023208583,0.0
0.6158854166666657,0.019794721407624633,0.020022414980294306,0.0
0.6165364583333324,0.020039100684261974,0.020020615838688395,0.0
0.617187499999999,0.020161290322580645,0.02001894330353994,0.0
0.6178385416666656,0.020039100684261974,0.020017403604600897,0.0
0.6184895833333323,0.020161290322580645,0.02001600020941874,0.0
0.6191406249999989,0.020161290322580645,0.020014733751521373,0.0
0.6197916666666655,0.020161290322580645,0.020013602151129035,0.0
0.6204427083333321,0.020161290322580645,0.02001260089164467,0.0
0.6210937499999988,0.020039100684261974,0.020011723413025113,0.0
0.6217447916666654,0.020039100684261974,0.020010961576256345,0.0
0.622395833333332,0.019916911045943304,0.020010306145893487,0.0
0.6230468749999987,0.019916911045943304,0.020009747238618755,0.0
0.6236979166666653,0.019794721407624633,0.020009274696050915,0.0
0.6243489583333319,0.019794721407624633,0.020008878354188336,0.0
0.6249999999999986,0.019794721407624633,0.02000854819587738,0.0
0.6256510416666652,0.019916911045943304,0.020008274389311687,0.0
0.6263020833333318,0.020039100684261974,0.020008047238642714,0.0
0.6269531249999984,0.019916911045943304,0.020007857095538914,0.0
0.6276041666666651,0.020039100684261974,0.02000769428481192,0.0
0.6282552083333317,0.020039100684261974,0.02000754907712162,0.0
0.6289062499999983,0.020161290322580645,0.020007411719181155,0.0
0.629557291666665,0.020039100684261974,0.02000727252544719,0.0
0.6302083333333316,0.020161290322580645,0.02000712203354703,0.0
0.6308593749999982,0.020283479960899315,0.020006951217214537,0.0
0.6315104166666649,0.020161290322580645,0.020006751746784634,0.0
0.6321614583333315,0.020283479960899315,0.020006516291530774,0.0
0.6328124999999981,0.020161290322580645,0.02000623885423739,0.0
0.6334635416666647,0.020161290322580645,0.020005915114735415,0.0
0.6341145833333314,0.020039100684261974,0.020005542748565964,0.0
0.634765624999998,0.019794721407624633,0.02000512168042429,0.0
0.6354166666666646,0.019794721407624633,0.020004654224495776,0.0
0.6360677083333313,0.019672531769305963,0.02000414506189616,0.0
0.6367187499999979,0.019794721407624633,0.020003601023484977,0.0
0.6373697916666645,0.019794721407624633,0.02000303068515388,0.0
0.6380208333333311,0.019916911045943304,0.02000244382364555,0.0
0.6386718749999978,0.019916911045943304,0.02000185080527376,0.0
0.6393229166666644,0.020283479960899315,0.02000126198436518,0.0
0.639973958333331,0.020405669599217986,0.020000687186127405,0.0
0.6406249999999977,0.020405669599217986,0.020000135349427125,0.0
0.6412760416666643,0.020405669599217986,0.01999961439043249,0.0
0.6419270833333309,0.020405669599217986,0.01999913130109564,0.0
0.6425781249999976,0.020405669599217986,0.019998692441874067,0.0
0.6432291666666642,0.020161290322580645,0.019998303959328285,0.0
0.6438802083333308,0.019916911045943304,0.019997972249043525,0.0
0.6445312499999974,0.020039100684261974,0.019997704372334887,0.0
0.6451822916666641,0.019916911045943304,0.019997508336601195,0.0
0.6458333333333307,0.019916911045943304,0.019997393187059818,0.0
0.6464843749999973,0.019794721407624633,0.01999736890876733,0.0
0.647135416666664,0.019794721407624633,0.01999744616309995,0.0
0.6477864583333306,0.019794721407624633,0.01999763588444216,0.0
0.6484374999999972,0.020039100684261974,0.019997948768014823,0.0
0.6490885416666639,0.020161290322580645,0.01999839470147859,0.0
0.6497395833333305,0.020161290322580645,0.01999898222002444,0.0
0.6503906249999971,0.020283479960899315,0.019999718070027983,0.0
0.6510416666666637,0.020161290322580645,0.020000606937008045,0.0
0.6516927083333304,0.020283479960899315,0.020001651349488885,0.0
0.652343749999997,0.020161290322580645,0.020002851737294772,0.0
0.6529947916666636,0.020161290322580645,0.0200042066070246,0.0
0.6536458333333303,0.020161290322580645,0.020005712792363878,0.0
0.6542968749999969,0.020161290322580645,0.02000736573853524,0.0
0.6549479166666635,0.020283479960899315,0.020009159791051445,0.0
0.6555989583333302,0.020161290322580645,0.02001108847681212,0.0
0.6562499999999968,0.020039100684261974,0.020013144776221785,0.0
0.6569010416666634,0.019916911045943304,0.020015321374507837,0.0
0.65755208333333,0.019916911045943304,0.02001761085720251,0.0
0.6582031249999967,0.019916911045943304,0.020020005807733082,0.0
0.6588541666666633,0.019794721407624633,0.02002249878655602,0.0
0.6595052083333299,0.019916911045943304,0.02002508220017824,0.0
0.6601562499999966,0.019916911045943304,0.020027748085212446,0.0
0.6608072916666632,0.020039100684261974,0.02003048784340332,0.0
0.6614583333333298,0.020039100684261974,0.020033291974989823,0.0
0.6621093749999964,0.020283479960899315,0.02003614986202236,0.0
0.6627604166666631,0.020405669599217986,0.020039049649771542,0.0
0.6634114583333297,0.020283479960899315,0.02004197826986975,0.0
0.6640624999999963,0.020405669599217986,0.02004492163351824,0.0
0.664713541666663,0.020405669599217986,0.020047864988708336,0.0
0.6653645833333296,0.020405669599217986,0.020050793404274403,0.0
0.6660156249999962,0.020161290322580645,0.020053692333294296,0.0
0.6666666666666629,0.019916911045943304,0.020056548198693343,0.0
0.6673177083333295,0.019916911045943304,0.020059348919988423,0.0
0.6679687499999961,0.019794721407624633,0.020062084288314654,0.0
0.6686197916666627,0.019916911045943304,0.020064746125885265,0.0
0.6692708333333294,0.019794721407624633,0.020067328221922014,0.0
0.669921874999996,0.019794721407624633,0.02006982608174799,0.0
0.6705729166666626,0.019794721407624633,0.020072236540022187,0.0
0.6712239583333293,0.020039100684261974,0.020074557285958305,0.0
0.6718749999999959,0.020161290322580645,0.020076786354351322,0.0
0.6725260416666625,0.020161290322580645,0.020078921655609237,0.0
0.6731770833333292,0.020283479960899315,0.020080960622726043,0.0
0.6738281249999958,0.020283479960899315,0.02008290002586996,0.0
0.6744791666666624,0.020405669599217986,0.020084735967184936,0.0
0.675130208333329,0.020283479960899315,0.020086464043785453,0.0
0.6757812499999957,0.020161290322580645,0.020088079650674343,0.0
0.6764322916666623,0.020161290322580645,0.020089578373570033,0.0
0.6770833333333289,0.020039100684261974,0.020090956402052437,0.0
0.6777343749999956,0.020161290322580645,0.02009221089578664,0.0
0.6783854166666622,0.020039100684261974,0.020093340262079176,0.0
0.6790364583333288,0.020039100684261974,0.02009434433214561,0.0
0.6796874999999954,0.019916911045943304,0.02009522443800058,0.0
0.6803385416666621,0.019916911045943304,0.02009598339006517,0.0
0.6809895833333287,0.019916911045943304,0.020096625351611188,0.0
0.6816406249999953,0.019916911045943304,0.020097155613248225,0.0
0.682291666666662,0.020039100684261974,0.020097580287196628,0.0
0.6829427083333286,0.019916911045943304,0.02009790595642673,0.0
0.6835937499999952,0.020039100684261974,0.020098139318304047,0.0
0.6842447916666619,0.020039100684261974,0.02009828685459677,0.0
0.6848958333333285,0.020283479960899315,0.020098354551468068,0.0
0.6855468749999951,0.020405669599217986,0.020098347698179083,0.0
0.6861979166666617,0.020283479960899315,0.020098270804749074,0.0
0.6868489583333284,0.020405669599217986,0.0200981276715235,0.0
0.687499999999995,0.020283479960899315,0.020097921609048587,0.0
0.6881510416666616,0.020283479960899315,0.02009765576973276,0.0
0.6888020833333283,0.020161290322580645,0.02009733353539967,0.0
0.6894531249999949,0.019916911045943304,0.02009695889993038,0.0
0.6901041666666615,0.019916911045943304,0.02009653678159044,0.0
0.6907552083333282,0.019794721407624633,0.02009607320040228,0.0
0.6914062499999948,0.019916911045943304,0.02009557527638602,0.0
0.6920572916666614,0.019794721407624633,0.0200950510443745,0.0
0.692708333333328,0.019794721407624633,0.02009450911773839,0.0
0.6933593749999947,0.019916911045943304,0.020093958247779743,0.0
0.6940104166666613,0.019916911045943304,0.020093406825926616,0.0
0.6946614583333279,0.020161290322580645,0.020092862380785524,0.0
0.6953124999999946,0.020161290322580645,0.02009233113178446,0.0
0.6959635416666612,0.020283479960899315,0.020091817661989513,0.0
0.6966145833333278,0.020283479960899315,0.02009132475695786,0.0
0.6972656249999944,0.020161290322580645,0.02009085342656331,0.0
0.6979166666666611,0.020161290322580645,0.020090403090756444,0.0
0.6985677083333277,0.019916911045943304,0.02008997187770887,0.0
0.6992187499999943,0.020039100684261974,0.020089556963639572,0.0
0.699869791666661,0.019916911045943304,0.0200891548862593,0.0
0.7005208333333276,0.020039100684261974,0.020088761788326536,0.0
0.7011718749999942,0.019916911045943304,0.020088373580775108,0.0
0.7018229166666609,0.019794721407624633,0.02008798603517756,0.0
0.7024739583333275,0.019794721407624633,0.020087594812409963,0.0
0.7031249999999941,0.019794721407624633,0.02008719542128536,0.0
0.7037760416666607,0.019916911045943304,0.020086783102782536,0.0
0.7044270833333274,0.019794721407624633,0.020086352657596254,0.0
0.705078124999994,0.019916911045943304,0.020085898253819144,0.0
0.7057291666666606,0.019916911045943304,0.02008541325059946,0.0
0.7063802083333273,0.020039100684261974,0.020084890064286813,0.0
0.7070312499999939,0.020039100684261974,0.020084320101083943,0.0
0.7076822916666605,0.020039100684261974,0.020083693779032918,0.0
0.7083333333333272,0.020161290322580645,0.020083000651726714,0.0
0.7089843749999938,0.020039100684261974,0.020082229630920392,0.0
0.7096354166666604,0.020283479960899315,0.020081369295325655,0.0
0.710286458333327,0.020161290322580645,0.020080408270558136,0.0
0.7109374999999937,0.020161290322580645,0.0200793356660444,0.0
0.7115885416666603,0.020039100684261974,0.02007814154879682,0.0
0.7122395833333269,0.019794721407624633,0.020076817414969785,0.0
0.7128906249999936,0.019794721407624633,0.020075356597886264,0.0
0.7135416666666602,0.019672531769305963,0.020073754544021112,0.0
0.7141927083333268,0.019672531769305963,0.02007200890689666,0.0
0.7148437499999934,0.019672531769305963,0.020070119445414137,0.0
0.7154947916666601,0.019794721407624633,0.020068087749140096,0.0
0.7161458333333267,0.019794721407624633,0.0200659168399314,0.0
0.7167968749999933,0.020161290322580645,0.02006361071813727,0.0
0.71744791666666,0.020161290322580645,0.02006117393352595,0.0
0.7180989583333266,0.020161290322580645,0.020058611262593472,0.0
0.7187499999999932,0.020283479960899315,0.02005592755205259,0.0
0.7194010416666599,0.020283479960899315,0.020053127744488974,0.0
0.7200520833333265,0.020283479960899315,0.02005021706559005,0.0
0.7207031249999931,0.020161290322580645,0.020047201336171848,0.0
0.7213541666666597,0.019916911045943304,0.02004408735775509,0.0
0.7220052083333264,0.020039100684261974,0.020040883299323842,0.0
0.722656249999993,0.019916911045943304,0.02003759900555513,0.0
0.7233072916666596,0.019916911045943304,0.020034246171009615,0.0
0.7239583333333263,0.019794721407624633,0.020030838363002502,0.0
0.7246093749999929,0.019794721407624633,0.02002739089728935,0.0
0.7252604166666595,0.019794721407624633,0.020023920574987544,0.0
0.7259114583333262,0.019916911045943304,0.02002044529705518,0.0
0.7265624999999928,0.019916911045943304,0.020016983591456518,0.0
0.7272135416666594,0.019916911045943304,0.020013554105418097,0.0
0.727864583333326,0.020039100684261974,0.02001017511566217,0.0
0.7285156249999927,0.020039100684261974,0.020006864095878953,0.0
0.7291666666666593,0.020161290322580645,0.02000363736901802,0.0
0.7298177083333259,0.020039100684261974,0.020000509865410673,0.0
0.7304687499999926,0.020161290322580645,0.019997494995954112,0.0
0.7311197916666592,0.020283479960899315,0.019994604633663524,0.0
0.7317708333333258,0.020161290322580645,0.019991849191254737,0.0
0.7324218749999925,0.020161290322580645,0.01998923778528633,0.0
0.7330729166666591,0.020161290322580645,0.01998677846925306,0.0
0.7337239583333257,0.020039100684261974,0.0199844785006413,0.0
0.7343749999999923,0.019916911045943304,0.01998234459887734,0.0
0.735026041666659,0.019794721407624633,0.01998038315012565,0.0
0.7356770833333256,0.019794721407624633,0.01997860031358789,0.0
0.7363281249999922,0.019672531769305963,0.01997700199284781,0.0
0.7369791666666589,0.019794721407624633,0.019975593660407888,0.0
0.7376302083333255,0.019794721407624633,0.019974380053265933,0.0
0.7382812499999921,0.019794721407624633,0.019973364782202817,0.0
0.7389322916666587,0.019794721407624633,0.019972549909531904,0.0
0.7395833333333254,0.020039100684261974,0.019971935545721513,0.0
0.740234374999992,0.020283479960899315,0.01997151951075142,0.0
0.7408854166666586,0.020161290322580645,0.019971297116887197,0.0
0.7415364583333253,0.020283479960899315,0.01997126113320543,0.0
0.7421874999999919,0.020283479960899315,0.019971401960200877,0.0
0.7428385416666585,0.020161290322580645,0.01997170799452731,0.0
0.7434895833333252,0.020161290322580645,0.01997216613280028,0.0
0.7441406249999918,0.019916911045943304,0.019972762348242537,0.0
0.7447916666666584,0.019916911045943304,0.019973482264306758,0.0
0.745442708333325,0.019794721407624633,0.019974311650116833,0.0
0.7460937499999917,0.019916911045943304,0.01997523678086517,0.0
0.7467447916666583,0.019794721407624633,0.01997624464051958,0.0
0.7473958333333249,0.019672531769305963,0.019977322977621767,0.0
0.7480468749999916,0.019794721407624633,0.019978460237063254,0.0
0.7486979166666582,0.020161290322580645,0.019979645390782643,0.0
0.7493489583333248,0.020161290322580645,0.01998086771207907,0.0
0.7499999999999915,0.020161290322580645,0.019982116575624143,0.0
0.7506510416666581,0.020161290322580645,0.019983381365109947,0.0
0.7513020833333247,0.020161290322580645,0.019984651519527608,0.0
0.7519531249999913,0.020283479960899315,0.01998591669813761,0.0
0.752604166666658,0.020161290322580645,0.01998716702956245,0.0
0.7532552083333246,0.020161290322580645,0.019988393416124735,0.0
0.7539062499999912,0.020283479960899315,0.01998958786509695,0.0
0.7545572916666579,0.020161290322580645,0.01999074381678436,0.0
0.7552083333333245,0.020283479960899315,0.019991856447463794,0.0
0.7558593749999911,0.020161290322580645,0.019992922935296666,0.0
0.7565104166666577,0.020039100684261974,0.01999394267719276,0.0
0.7571614583333244,0.019916911045943304,0.01999491743420166,0.0
0.757812499999991,0.019794721407624633,0.01999585136855455,0.0
0.7584635416666576,0.019916911045943304,0.0199967509315815,0.0
0.7591145833333243,0.019794721407624633,0.01999762458232199,0.0
0.7597656249999909,0.019916911045943304,0.019998482353105692,0.0
0.7604166666666575,0.019916911045943304,0.0199993353069737,0.0
0.7610677083333242,0.019916911045943304,0.020000194942060328,0.0
0.7617187499999908,0.020039100684261974,0.0200010725959516,0.0
0.7623697916666574,0.020283479960899315,0.020001978897814743,0.0
0.763020833333324,0.020405669599217986,0.020002923318723085,0.0
0.7636718749999907,0.020283479960899315,0.020003913878107533,0.0
0.7643229166666573,0.020405669599217986,0.020004957049769685,0.0
0.7649739583333239,0.020405669599217986,0.020006057867268626,0.0
0.7656249999999906,0.020405669599217986,0.020007220190601815,0.0
0.7662760416666572,0.020161290322580645,0.020008447084446823,0.0
0.7669270833333238,0.019916911045943304,0.020009741248783134,0.0
0.7675781249999905,0.019916911045943304,0.020011105418955188,0.0
0.7682291666666571,0.019794721407624633,0.020012542640564537,0.0
0.7688802083333237,0.019916911045943304,0.020014056353674106,0.0
0.7695312499999903,0.019794721407624633,0.02001565027675534,0.0
0.770182291666657,0.019916911045943304,0.020017328126616933,0.0
0.7708333333333236,0.019672531769305963,0.020019093227786718,0.0
0.7714843749999902,0.020039100684261974,0.020020948060098825,0.0
0.7721354166666569,0.020161290322580645,0.020022893789035788,0.0
0.7727864583333235,0.020161290322580645,0.020024929838416982,0.0
0.7734374999999901,0.020161290322580645,0.020027053579788633,0.0
0.7740885416666567,0.020283479960899315,0.02002926019158882,0.0
0.7747395833333234,0.020283479960899315,0.02003154269703608,0.0
0.77539062499999,0.020283479960899315,0.02003389216337902,0.0
0.7760416666666566,0.020161290322580645,0.020036298036997698,0.0
0.7766927083333233,0.020161290322580645,0.02003874857589503,0.0
0.7773437499999899,0.020039100684261974,0.02004123132466751,0.0
0.7779947916666565,0.020161290322580645,0.020043733573906566,0.0
0.7786458333333232,0.020039100684261974,0.020046242761423284,0.0
0.7792968749999898,0.020039100684261974,0.020048746795854035,0.0
0.7799479166666564,0.019916911045943304,0.020051234297174217,0.0
0.780598958333323,0.019916911045943304,0.020053694747810658,0.0
0.7812499999999897,0.019916911045943304,0.020056118544970362,0.0
0.7819010416666563,0.019794721407624633,0.020058496951605505,0.0
0.7825520833333229,0.019916911045943304,0.02006082195558402,0.0
0.7832031249999896,0.019916911045943304,0.020063086056195865,0.0
0.7838541666666562,0.020039100684261974,0.020065282007633273,0.0
0.7845052083333228,0.020039100684261974,0.020067402561718264,0.0
0.7851562499999895,0.020283479960899315,0.020069440257482075,0.0
0.7858072916666561,0.020405669599217986,0.020071387302676227,0.0
0.7864583333333227,0.020283479960899315,0.020073235588641686,0.0
0.7871093749999893,0.020405669599217986,0.020074976865389615,0.0
0.787760416666656,0.020283479960899315,0.020076603068884622,0.0
0.7884114583333226,0.020283479960899315,0.020078106756786666,0.0
0.7890624999999892,0.020161290322580645,0.020079481592593054,0.0
0.7897135416666559,0.019916911045943304,0.020080722814160734,0.0
0.7903645833333225,0.019916911045943304,0.020081827618824828,0.0
0.7910156249999891,0.019794721407624633,0.020082795398829803,0.0
0.7916666666666557,0.019916911045943304,0.02008362778189374,0.0
0.7923177083333224,0.019794721407624633,0.020084328472161444,0.0
0.792968749999989,0.019794721407624633,0.020084902923903292,0.0
0.7936197916666556,0.019794721407624633,0.020085357894021633,0.0
0.7942708333333223,0.020161290322580645,0.020085700918320078,0.0
0.7949218749999889,0.020283479960899315,0.020085939768421716,0.0
0.7955729166666555,0.020283479960899315,0.020086081973876128,0.0
0.7962239583333222,0.020405669599217986,0.020086134499160097,0.0
0.7968749999999888,0.020405669599217986,0.020086103626258366,0.0
0.7975260416666554,0.020405669599217986,0.0200859950415225,0.0
0.798177083333322,0.020283479960899315,0.020085814091913876,0.0
0.7988281249999887,0.020161290322580645,0.020085566154543294,0.0
0.7994791666666553,0.020161290322580645,0.02008525704552944,0.0
0.8001302083333219,0.020039100684261974,0.02008489339003636,0.0
0.8007812499999886,0.020161290322580645,0.02008448289359171,0.0
0.8014322916666552,0.020039100684261974,0.020084034486692857,0.0
0.8020833333333218,0.019916911045943304,0.02008355834220058,0.0
0.8027343749999885,0.019794721407624633,0.020083065772436126,0.0
0.8033854166666551,0.019794721407624633,0.020082569001694882,0.0
0.8040364583333217,0.019916911045943304,0.02008208080555773,0.0
0.8046874999999883,0.019916911045943304,0.02008161403139201,0.0
0.805338541666655,0.020039100684261974,0.020081181050439878,0.0
0.8059895833333216,0.020039100684261974,0.02008079321115089,0.0
0.8066406249999882,0.020161290322580645,0.02008046035743647,0.0
0.8072916666666549,0.020161290322580645,0.020080190457703866,0.0
0.8079427083333215,0.020161290322580645,0.020079989371917895,0.0
0.8085937499999881,0.020283479960899315,0.020079860765588448,0.0
0.8092447916666548,0.020161290322580645,0.020079806163418864,0.0
0.8098958333333214,0.020283479960899315,0.020079825124905935,0.0
0.810546874999988,0.020283479960899315,0.020079915518293547,0.0
0.8111979166666546,0.020161290322580645,0.020080073866944312,0.0
0.8118489583333213,0.020039100684261974,0.020080295739206805,0.0
0.8124999999999879,0.019794721407624633,0.020080576138616926,0.0
0.8131510416666545,0.019794721407624633,0.020080909830377813,0.0
0.8138020833333212,0.019672531769305963,0.020081291536240848,0.0
0.8144531249999878,0.019794721407624633,0.020081715956315825,0.0
0.8151041666666544,0.019672531769305963,0.020082177620128948,0.0
0.815755208333321,0.019794721407624633,0.020082670605897166,0.0
0.8164062499999877,0.019794721407624633,0.020083188183161012,0.0
0.8170572916666543,0.020161290322580645,0.020083722438177437,0.0
0.8177083333333209,0.020283479960899315,0.02008426395142968,0.0
0.8183593749999876,0.020161290322580645,0.020084801609454403,0.0
0.8190104166666542,0.020283479960899315,0.02008532261887759,0.0
0.8196614583333208,0.020283479960899315,0.020085812738960027,0.0
0.8203124999999875,0.020405669599217986,0.02008625670005184,0.0
0.8209635416666541,0.020161290322580645,0.02008663876118634,0.0
0.8216145833333207,0.020039100684261974,0.020086943357347686,0.0
0.8222656249999873,0.020039100684261974,0.020087155768042923,0.0
0.822916666666654,0.019916911045943304,0.02008726272250016,0.0
0.8235677083333206,0.019916911045943304,0.02008725287158252,0.0
0.8242187499999872,0.019794721407624633,0.020087117091156598,0.0
0.8248697916666539,0.019794721407624633,0.020086848608273495,0.0
0.8255208333333205,0.019794721407624633,0.020086442955722907,0.0
0.8261718749999871,0.019916911045943304,0.0200858977743672,0.0
0.8268229166666538,0.020039100684261974,0.020085212503238165,0.0
0.8274739583333204,0.019916911045943304,0.020084388017886805,0.0
0.828124999999987,0.020039100684261974,0.020083426279742574,0.0
0.8287760416666536,0.020039100684261974,0.020082330037334166,0.0
0.8294270833333203,0.020161290322580645,0.020081102596038087,0.0
0.8300781249999869,0.020039100684261974,0.02007974766517855,0.0
0.8307291666666535,0.020161290322580645,0.020078269288335025,0.0
0.8313802083333202,0.020283479960899315,0.020076671853161466,0.0
0.8320312499999868,0.020161290322580645,0.02007496017237384,0.0
0.8326822916666534,0.020283479960899315,0.020073139631007226,0.0
0.83333333333332,0.020039100684261974,0.020071216389371958,0.0
0.8339843749999867,0.020039100684261974,0.020069197611774264,0.0
0.8346354166666533,0.020039100684261974,0.02006709167358369,0.0
0.8352864583333199,0.019794721407624633,0.02006490829767755,0.0
0.8359374999999866,0.019794721407624633,0.02006265858332575,0.0
0.8365885416666532,0.019672531769305963,0.020060354901530505,0.0
0.8372395833333198,0.019794721407624633,0.02005801064066908,0.0
0.8378906249999865,0.019794721407624633,0.020055639809459187,0.0
0.8385416666666531,0.019794721407624633,0.020053256536441147,0.0
0.8391927083333197,0.019916911045943304,0.020050874524840754,0.0
0.8398437499999863,0.020161290322580645,0.020048506523538453,0.0
0.840494791666653,0.020283479960899315,0.02004616387627248,0.0
0.8411458333333196,0.020283479960899315,0.020043856217349887,0.0
0.8417968749999862,0.020405669599217986,0.020041591370658658,0.0
0.8424479166666529,0.020283479960899315,0.020039375469798858,0.0
0.8430989583333195,0.020283479960899315,0.02003721327239657,0.0
0.8437499999999861,0.020161290322580645,0.02003510860998264,0.0
0.8444010416666528,0.019916911045943304,0.020033064896395017,0.0
0.8450520833333194,0.019916911045943304,0.020031085608703102,0.0
0.845703124999986,0.019794721407624633,0.020029174657690295,0.0
0.8463541666666526,0.019916911045943304,0.020027336588851537,0.0
0.8470052083333193,0.019794721407624633,0.02002557659779619,0.0
0.8476562499999859,0.019794721407624633,0.020023900383251424,0.0
0.8483072916666525,0.019794721407624633,0.020022313876498478,0.0
0.8489583333333192,0.019916911045943304,0.0200208228844242,0.0
0.8496093749999858,0.020039100684261974,0.02001943268646317,0.0
0.8502604166666524,0.019916911045943304,0.02001814763832987,0.0
0.850911458333319,0.020161290322580645,0.020016970837980704,0.0
0.8515624999999857,0.020039100684261974,0.020015903892105568,0.0
0.8522135416666523,0.020161290322580645,0.020014946800381343,0.0
0.8528645833333189,0.020039100684261974,0.020014097959758823,0.0
0.8535156249999856,0.020039100684261974,0.020013354275477985,0.0
0.8541666666666522,0.020161290322580645,0.020012711350407247,0.0
0.8548177083333188,0.020039100684261974,0.02001216372164351,0.0
0.8554687499999855,0.020161290322580645,0.020011705123955816,0.0
0.8561197916666521,0.020039100684261974,0.020011328768928277,0.0
0.8567708333333187,0.019916911045943304,0.020011027626512516,0.0
0.8574218749999853,0.019916911045943304,0.0200107946848085,0.0
0.858072916666652,0.019794721407624633,0.020010623153335197,0.0
0.8587239583333186,0.019916911045943304,0.02001050657780284,0.0
0.8593749999999852,0.019794721407624633,0.02001043885416052,0.0
0.8600260416666519,0.019916911045943304,0.020010414153469637,0.0
0.8606770833333185,0.019916911045943304,0.020010426784312647,0.0
0.8613281249999851,0.019916911045943304,0.020010471025485414,0.0
0.8619791666666518,0.019916911045943304,0.020010540960976736,0.0
0.8626302083333184,0.020283479960899315,0.020010630343679277,0.0
0.863281249999985,0.020405669599217986,0.02001073251778717,0.0
0.8639322916666516,0.020405669599217986,0.020010840449169447,0.0
0.8645833333333183,0.020527859237536656,0.02001094691837143,0.0
0.8652343749999849,0.020405669599217986,0.020011044897003196,0.0
0.8658854166666515,0.020405669599217986,0.020011128078018765,0.0
0.8665364583333182,0.020283479960899315,0.020011191495188974,0.0
0.8671874999999848,0.019916911045943304,0.02001123214896724,0.0
0.8678385416666514,0.019916911045943304,0.02001124954441419,0.0
0.868489583333318,0.019794721407624633,0.020011246044439334,0.0
0.8691406249999847,0.019916911045943304,0.02001122696745478,0.0
0.8697916666666513,0.019794721407624633,0.0200112004151255,0.0
0.8704427083333179,0.019794721407624633,0.020011176869507114,0.0
0.8710937499999846,0.019916911045943304,0.020011168620589197,0.0
0.8717447916666512,0.020039100684261974,0.02001118908695615,0.0
0.8723958333333178,0.020161290322580645,0.02001125209983625,0.0
0.8730468749999845,0.020161290322580645,0.02001137123155023,0.0
0.8736979166666511,0.020283479960899315,0.020011559241132487,0.0
0.8743489583333177,0.020283479960899315,0.020011827680798025,0.0
0.8749999999999843,0.020405669599217986,0.020012186677035464,0.0
0.875651041666651,0.020283479960899315,0.020012644881185187,0.0
0.8763020833333176,0.020161290322580645,0.020013209568406267,0.0
0.8769531249999842,0.020161290322580645,0.020013886840947803,0.0
0.8776041666666509,0.020161290322580645,0.020014681872017947,0.0
0.8782552083333175,0.020161290322580645,0.02001559913185668,0.0
0.8789062499999841,0.020039100684261974,0.020016642564569136,0.0
0.8795572916666508,0.020039100684261974,0.020017815704752997,0.0
0.8802083333333174,0.019916911045943304,0.02001912172459019,0.0
0.880859374999984,0.019916911045943304,0.020020563398582148,0.0
0.8815104166666506,0.019916911045943304,0.02002214297754955,0.0
0.8821614583333173,0.019916911045943304,0.02002386197659249,0.0
0.8828124999999839,0.020039100684261974,0.020025720898878826,0.0
0.8834635416666505,0.019916911045943304,0.020027718931598305,0.0
0.8841145833333172,0.020039100684261974,0.020029853654226357,0.0
0.8847656249999838,0.020039100684261974,0.020032120790812964,0.0
0.8854166666666504,0.020283479960899315,0.02003451402923473,0.0
0.886067708333317,0.020405669599217986,0.02003702493500214,0.0
0.8867187499999837,0.020283479960899315,0.020039642998373273,0.0
0.8873697916666503,0.020405669599217986,0.02004235584594799,0.0
0.8880208333333169,0.020283479960899315,0.020045149613156933,0.0
0.8886718749999836,0.020283479960899315,0.020048009437000497,0.0
0.8893229166666502,0.020161290322580645,0.02005092001093593,0.0
0.8899739583333168,0.019916911045943304,0.020053866138875543,0.0
0.8906249999999835,0.019916911045943304,0.020056833220675977,0.0
0.8912760416666501,0.019794721407624633,0.020059807602322146,0.0
0.8919270833333167,0.019916911045943304,0.020062776744566153,0.0
0.8925781249999833,0.019794721407624633,0.02006572920378679,0.0
0.89322916666665,0.019794721407624633,0.020068654455611776,0.0
0.8938802083333166,0.019794721407624633,0.020071542605319296,0.0
0.8945312499999832,0.020161290322580645,0.020074384027782166,0.0
0.8951822916666499,0.020161290322580645,0.02007716899046154,0.0
0.8958333333333165,0.020161290322580645,0.02007988733545476,0.0
0.8964843749999831,0.020283479960899315,0.02008252829423013,0.0
0.8971354166666498,0.020283479960899315,0.020085080469928983,0.0
0.8977864583333164,0.020405669599217986,0.020087531983639443,0.0
0.898437499999983,0.020283479960899315,0.02008987076599204,0.0
0.8990885416666496,0.020161290322580645,0.020092084966187074,0.0
0.8997395833333163,0.020161290322580645,0.02009416343035525,0.0
0.9003906249999829,0.020039100684261974,0.020096096181491833,0.0
0.9010416666666495,0.020039100684261974,0.020097874834359982,0.0
0.9016927083333162,0.020039100684261974,0.02009949290014239,0.0
0.9023437499999828,0.019916911045943304,0.020100945961118184,0.0
0.9029947916666494,0.019916911045943304,0.020102231713821424,0.0
0.903645833333316,0.019916911045943304,0.020103349886904914,0.0
0.9042968749999827,0.019916911045943304,0.02010430204460047,0.0
0.9049479166666493,0.019794721407624633,0.0201050912956159,0.0
0.9055989583333159,0.020039100684261974,0.02010572193416766,0.0
0.9062499999999826,0.019916911045943304,0.02010619904253404,0.0
0.9069010416666492,0.020161290322580645,0.020106528091817174,0.0
0.9075520833333158,0.020161290322580645,0.020106714586326634,0.0
0.9082031249999825,0.020283479960899315,0.020106763796999397,0.0
0.9088541666666491,0.020283479960899315,0.02010668061962214,0.0
0.9095052083333157,0.020283479960899315,0.020106469575377536,0.0
0.9101562499999823,0.020405669599217986,0.02010613494793124,0.0
0.910807291666649,0.020283479960899315,0.02010568103355787,0.0
0.9114583333333156,0.020283479960899315,0.020105112472447492,0.0
0.9121093749999822,0.020161290322580645,0.020104434621342624,0.0
0.9127604166666489,0.019794721407624633,0.020103653913909326,0.0
0.9134114583333155,0.019794721407624633,0.020102778138661175,0.0
0.9140624999999821,0.019672531769305963,0.0201018165560374,0.0
0.9147135416666488,0.019794721407624633,0.02010077979705703,0.0
0.9153645833333154,0.019794721407624633,0.020099679539382503,0.0
0.916015624999982,0.019794721407624633,0.02009852801174756,0.0
0.9166666666666486,0.019794721407624633,0.020097337402866674,0.0
0.9173177083333153,0.020039100684261974,0.020096119245935618,0.0
0.9179687499999819,0.020161290322580645,0.020094883840676803,0.0
0.9186197916666485,0.020161290322580645,0.020093639778571593,0.0
0.9192708333333152,0.020283479960899315,0.020092393635395518,0.0
0.9199218749999818,0.020283479960899315,0.02009114986852005,0.0
0.9205729166666484,0.020405669599217986,0.02008991092038564,0.0
0.921223958333315,0.020161290322580645,0.020088677505634412,0.0
0.9218749999999817,0.020039100684261974,0.02008744903961937,0.0
0.9225260416666483,0.020039100684261974,0.02008622413813044,0.0
0.9231770833333149,0.019916911045943304,0.02008500110005855,0.0
0.9238281249999816,0.019916911045943304,0.02008377829935523,0.0
0.9244791666666482,0.019794721407624633,0.020082554447214136,0.0
0.9251302083333148,0.019794721407624633,0.020081328711987888,0.0
0.9257812499999815,0.019794721407624633,0.020080100698566753,0.0
0.9264322916666481,0.019916911045943304,0.020078870302842573,0.0
0.9270833333333147,0.019916911045943304,0.020077637476429107,0.0
0.9277343749999813,0.019916911045943304,0.02007640195340096,0.0
0.928385416666648,0.020039100684261974,0.020075162990787137,0.0
0.9290364583333146,0.020039100684261974,0.020073919160573564,0.0
0.9296874999999812,0.020161290322580645,0.02007266821906275,0.0
0.9303385416666479,0.020039100684261974,0.020071407072757706,0.0
0.9309895833333145,0.020161290322580645,0.02007013184813788,0.0
0.9316406249999811,0.020283479960899315,0.020068838056830383,0.0
0.9322916666666478,0.020161290322580645,0.020067520842159528,0.0
0.9329427083333144,0.020283479960899315,0.020066175297210557,0.0
0.933593749999981,0.020161290322580645,0.020064796840650424,0.0
0.9342447916666476,0.020161290322580645,0.02006338162295354,0.0
0.9348958333333143,0.020039100684261974,0.02006192692524522,0.0
0.9355468749999809,0.019794721407624633,0.020060431506638957,0.0
0.9361979166666475,0.019794721407624633,0.020058895848619588,0.0
0.9368489583333142,0.019672531769305963,0.02005732224337156,0.0
0.9374999999999808,0.019794721407624633,0.0200557146912788,0.0
0.9381510416666474,0.019794721407624633,0.02005407861194158,0.0
0.938802083333314,0.019794721407624633,0.02005242041319328,0.0
0.9394531249999807,0.019794721407624633,0.02005074698206936,0.0
0.9401041666666473,0.020161290322580645,0.020049065158850035,0.0
0.9407552083333139,0.020283479960899315,0.020047381253653362,0.0
0.9414062499999806,0.020283479960899315,0.02004570067839285,0.0
0.9420572916666472,0.020405669599217986,0.020044027767005274,0.0
0.9427083333333138,0.020405669599217986,0.02004236581947297,0.0
0.9433593749999805,0.020283479960899315,0.02004071735495801,0.0
0.9440104166666471,0.020161290322580645,0.020039084523182465,0.0
0.9446614583333137,0.019916911045943304,0.0200374695955417,0.0
0.9453124999999803,0.019916911045943304,0.02003587543652746,0.0
0.945963541666647,0.019794721407624633,0.020034305858248357,0.0
0.9466145833333136,0.019916911045943304,0.020032765793924604,0.0
0.9472656249999802,0.019794721407624633,0.02003126127581463,0.0
0.9479166666666469,0.019794721407624633,0.020029799243539984,0.0
0.9485677083333135,0.019794721407624633,0.020028387224028367,0.0
0.9492187499999801,0.020039100684261974,0.02002703292340743,0.0
0.9498697916666468,0.020039100684261974,0.02002574377798907,0.0
0.9505208333333134,0.020039100684261974,0.020024526527367623,0.0
0.95117187499998,0.020161290322580645,0.020023386871211045,0.0
0.9518229166666466,0.020161290322580645,0.020022329245403637,0.0
0.9524739583333133,0.020161290322580645,0.02002135672723644,0.0
0.9531249999999799,0.020161290322580645,0.020020471064692114,0.0
0.9537760416666465,0.020161290322580645,0.020019672812089957,0.0
0.9544270833333132,0.020161290322580645,0.02001896154362861,0.0
0.9550781249999798,0.020161290322580645,0.020018336114461507,0.0
0.9557291666666464,0.020161290322580645,0.020017794943362845,0.0
0.956380208333313,0.020039100684261974,0.020017336295254647,0.0
0.9570312499999797,0.020039100684261974,0.020016958541380813,0.0
0.9576822916666463,0.019916911045943304,0.020016660370269553,0.0
0.9583333333333129,0.019794721407624633,0.020016440920031468,0.0
0.9589843749999796,0.019794721407624633,0.020016299805061116,0.0
0.9596354166666462,0.019672531769305963,0.020016237017435264,0.0
0.9602864583333128,0.019794721407624633,0.020016252697993054,0.0
0.9609374999999795,0.019794721407624633,0.02001634679451805,0.0
0.9615885416666461,0.019916911045943304,0.020016518648661774,0.0
0.9622395833333127,0.019916911045943304,0.020016766570440648,0.0
0.9628906249999793,0.020161290322580645,0.0200170874623991,0.0
0.963541666666646,0.020283479960899315,0.020017476549754252,0.0
0.9641927083333126,0.020283479960899315,0.020017927267454206,0.0
0.9648437499999792,0.020405669599217986,0.020018431343189237,0.0
0.9654947916666459,0.020283479960899315,0.020018979085995585,0.0
0.9661458333333125,0.020283479960899315,0.02001955985238099,0.0
0.9667968749999791,0.020161290322580645,0.02002016263180642,0.0
0.9674479166666458,0.019916911045943304,0.02002077667491919,0.0
0.9680989583333124,0.019916911045943304,0.020021392078972477,0.0
0.968749999999979,0.019794721407624633,0.020022000247916984,0.0
0.9694010416666456,0.019794721407624633,0.02002259416748091,0.0
0.9700520833333123,0.019794721407624633,0.020023168474485088,0.0
0.9707031249999789,0.019794721407624633,0.0200237193365449,0.0
0.9713541666666455,0.019794721407624633,0.02002424418174225,0.0
0.9720052083333122,0.020039100684261974,0.020024741329447652,0.0
0.9726562499999788,0.020161290322580645,0.02002520958271079,0.0
0.9733072916666454,0.020161290322580645,0.020025647854948304,0.0
0.973958333333312,0.020283479960899315,0.02002605490355462,0.0
0.9746093749999787,0.020283479960899315,0.020026429216128468,0.0
0.9752604166666453,0.020405669599217986,0.020026769058599094,0.0
0.9759114583333119,0.020283479960899315,0.02002707267132701,0.0
0.9765624999999786,0.020161290322580645,0.02002733858417704,0.0
0.9772135416666452,0.020283479960899315,0.02002756600189282,0.0
0.9778645833333118,0.020161290322580645,0.020027755197441422,0.0
0.9785156249999785,0.020161290322580645,0.020027907860414973,0.0
0.9791666666666451,0.020039100684261974,0.020028027368199842,0.0
0.9798177083333117,0.020039100684261974,0.020028118957212557,0.0
0.9804687499999784,0.019916911045943304,0.020028189773178436,0.0
0.981119791666645,0.019916911045943304,0.020028248785795715,0.0
0.9817708333333116,0.019916911045943304,0.020028306564744375,0.0
0.9824218749999782,0.019794721407624633,0.020028374927547044,0.0
0.9830729166666449,0.020039100684261974,0.020028466482796665,0.0
0.9837239583333115,0.019916911045943304,0.02002859410408726,0.0
0.9843749999999781,0.020039100684261974,0.0200287703812648,0.0
0.9850260416666448,0.020039100684261974,0.020029007098941898,0.0
0.9856770833333114,0.020283479960899315,0.020029314784018308,0.0
0.986328124999978,0.020405669599217986,0.02002970235913693,0.0
0.9869791666666446,0.020283479960899315,0.020030176943183285,0.0
0.9876302083333113,0.020405669599217986,0.02003074383079464,0.0
0.9882812499999779,0.020283479960899315,0.020031406648089212,0.0
0.9889322916666445,0.020283479960899315,0.02003216764472634,0.0
0.9895833333333112,0.020161290322580645,0.020033028064874774,0.0
0.9902343749999778,0.019916911045943304,0.020033988534626006,0.0
0.9908854166666444,0.019916911045943304,0.02003504939867985,0.0
0.991536458333311,0.019794721407624633,0.02003621093981147,0.0
0.9921874999999777,0.019916911045943304,0.020037473435034234,0.0
0.9928385416666443,0.019794721407624633,0.020038837042221775,0.0
0.9934895833333109,0.019794721407624633,0.020040301547572546,0.0
0.9941406249999776,0.019794721407624633,0.020041866017620803,0.0
0.9947916666666442,0.020161290322580645,0.02004352839809721,0.0
0.9954427083333108,0.020283479960899315,0.02004528511366028,0.0
0.9960937499999775,0.020161290322580645,0.020047130748922424,0.0
0.9967447916666441,0.020405669599217986,0.020049057892255136,0.0
0.9973958333333107,0.020405669599217986,0.02005105718239226,0.0
0.9980468749999774,0.020405669599217986,0.020053117553659544,0.0
0.998697916666644,0.020161290322580645,0.020055226653134455,0.0
0.9993489583333106,0.020161290322580645,0.02005737137890081,0.0
0.9999999999999772,0.020161290322580645,0.020059538459351427,0.0
1.0006510416666439,0.020039100684261974,0.02006171499073933,0.0
1.0013020833333106,0.020161290322580645,0.02006388887962254,0.0
1.0019531249999774,0.020039100684261974,0.020066049170416784,0.0
1.002604166666644,0.019916911045943304,0.02006818625739107,0.0
1.0032552083333108,0.019916911045943304,0.02007029198307624,0.0
1.0039062499999776,0.019916911045943304,0.020072359618504752,0.0
1.0045572916666443,0.020039100684261974,0.020074383724995072,0.0
1.005208333333311,0.019916911045943304,0.020076359919881936,0.0
1.0058593749999778,0.020039100684261974,0.020078284588069116,0.0
1.0065104166666445,0.020039100684261974,0.020080154580535307,0.0
1.0071614583333113,0.020039100684261974,0.020081966930551337,0.0
1.007812499999978,0.020161290322580645,0.020083718611787062,0.0
1.0084635416666448,0.020283479960899315,0.020085406359817093,0.0
1.0091145833333115,0.020405669599217986,0.020087026580756333,0.0
1.0097656249999782,0.020283479960899315,0.02008857537490291,0.0
1.010416666666645,0.020405669599217986,0.020090048692682196,0.0
1.0110677083333117,0.020283479960899315,0.020091442611004987,0.0
1.0117187499999785,0.020283479960899315,0.020092753691212027,0.0
1.0123697916666452,0.020161290322580645,0.020093979368318516,0.0
1.013020833333312,0.019794721407624633,0.020095118315804787,0.0
1.0136718749999787,0.019916911045943304,0.020096170720602737,0.0
1.0143229166666454,0.019794721407624633,0.02009713840039626,0.0
1.0149739583333122,0.019916911045943304,0.02009802472280751,0.0
1.015624999999979,0.019794721407624633,0.02009883433733987,0.0
1.0162760416666456,0.019794721407624633,0.020099572767943316,0.0
1.0169270833333124,0.019916911045943304,0.020100245918924956,0.0
1.0175781249999791,0.020161290322580645,0.0201008595425432,0.0
1.0182291666666459,0.020283479960899315,0.020101418729240025,0.0
1.0188802083333126,0.020283479960899315,0.020101927501307196,0.0
1.0195312499999793,0.020405669599217986,0.020102388583859727,0.0
1.020182291666646,0.020283479960899315,0.020102803385957727,0.0
1.0208333333333128,0.020283479960899315,0.020103172176735597,0.0
1.0214843749999796,0.020283479960899315,0.020103494408016835,0.0
1.0221354166666463,0.019916911045943304,0.020103769118072615,0.0
1.022786458333313,0.019916911045943304,0.020103995342577324,0.0
1.0234374999999798,0.019794721407624633,0.020104172452334205,0.0
1.0240885416666465,0.019916911045943304,0.02010430034769867,0.0
1.0247395833333133,0.019794721407624633,0.02010437948038871,0.0
1.02539062499998,0.019794721407624633,0.020104410720745623,0.0
1.0260416666666468,0.019794721407624633,0.02010439510991242,0.0
1.0266927083333135,0.019794721407624633,0.020104333534153446,0.0
1.0273437499999802,0.019794721407624633,0.020104226354476853,0.0
1.027994791666647,0.019794721407624633,0.020104073025021773,0.0
1.0286458333333137,0.020039100684261974,0.02010387173340679,0.0
1.0292968749999805,0.020039100684261974,0.02010361909983505,0.0
1.0299479166666472,0.020039100684261974,0.020103309979767496,0.0
1.030598958333314,0.020039100684261974,0.020102937408545307,0.0
1.0312499999999807,0.020161290322580645,0.02010249269780434,0.0
1.0319010416666474,0.020161290322580645,0.02010196566797133,0.0
1.0325520833333142,0.020161290322580645,0.020101344996888638,0.0
1.033203124999981,0.020283479960899315,0.020100618667495972,0.0
1.0338541666666476,0.020161290322580645,0.020099774494025797,0.0
1.0345052083333144,0.020161290322580645,0.020098800699728317,0.0
1.0351562499999811,0.020039100684261974,0.020097686510045905,0.0
1.0358072916666479,0.019794721407624633,0.02009642271161772,0.0
1.0364583333333146,0.019794721407624633,0.020095002115325215,0.0
1.0371093749999813,0.019550342130987292,0.02009341985926093,0.0
1.037760416666648,0.019672531769305963,0.02009167350255442,0.0
1.0384114583333148,0.019672531769305963,0.020089762894215178,0.0
1.0390624999999816,0.019794721407624633,0.020087689844092024,0.0
1.0397135416666483,0.019916911045943304,0.02008545766239456,0.0
1.040364583333315,0.020161290322580645,0.02008307065742685,0.0
1.0410156249999818,0.020283479960899315,0.020080533687025816,0.0
1.0416666666666485,0.020283479960899315,0.02007785185106175,0.0
1.0423177083333153,0.020283479960899315,0.0200750303833344,0.0
1.042968749999982,0.020161290322580645,0.020072074750089985,0.0
1.0436197916666488,0.020161290322580645,0.020068990909958655,0.0
1.0442708333333155,0.020161290322580645,0.020065785661057687,0.0
1.0449218749999822,0.019794721407624633,0.020062467000044566,0.0
1.045572916666649,0.019916911045943304,0.020059044426715734,0.0
1.0462239583333157,0.019794721407624633,0.02005552913319935,0.0
1.0468749999999825,0.019916911045943304,0.020051934034548805,0.0
1.0475260416666492,0.019794721407624633,0.020048273636463554,0.0
1.048177083333316,0.019672531769305963,0.020044563768315326,0.0
1.0488281249999827,0.019672531769305963,0.020040821211267237,0.0
1.0494791666666494,0.019916911045943304,0.020037063238186593,0.0
1.0501302083333162,0.020039100684261974,0.0200333070907271,0.0
1.050781249999983,0.020039100684261974,0.020029569454195473,0.0
1.0514322916666496,0.020161290322580645,0.02002586601188231,0.0
1.0520833333333164,0.020161290322580645,0.020022211140099725,0.0
1.0527343749999831,0.020161290322580645,0.020018617765855423,0.0
1.0533854166666499,0.020161290322580645,0.020015097378843525,0.0
1.0540364583333166,0.020161290322580645,0.02001166017040245,0.0
1.0546874999999833,0.020161290322580645,0.020008315261927066,0.0
1.05533854166665,0.020039100684261974,0.020005070984125985,0.0
1.0559895833333168,0.020161290322580645,0.020001935170576968,0.0
1.0566406249999836,0.020039100684261974,0.019998915432255456,0.0
1.0572916666666503,0.020039100684261974,0.019996019388219648,0.0
1.057942708333317,0.019916911045943304,0.019993254836131978,0.0
1.0585937499999838,0.019672531769305963,0.019990629844424852,0.0
1.0592447916666505,0.019672531769305963,0.019988152736966733,0.0
1.0598958333333173,0.019672531769305963,0.019985831935887505,0.0
1.060546874999984,0.019672531769305963,0.01998367564647705,0.0
1.0611979166666508,0.019794721407624633,0.019981691407147006,0.0
1.0618489583333175,0.019916911045943304,0.019979885562969733,0.0
1.0624999999999842,0.019916911045943304,0.019978262738733377,0.0
1.063151041666651,0.020161290322580645,0.019976825387678247,0.0
1.0638020833333177,0.020283479960899315,0.01997557347998157,0.0
1.0644531249999845,0.020161290322580645,0.019974504379161064,0.0
1.0651041666666512,0.020283479960899315,0.01997361293210171,0.0
1.065755208333318,0.020283479960899315,0.01997289176240175,0.0
1.0664062499999847,0.020283479960899315,0.019972331725649894,0.0
1.0670572916666514,0.020039100684261974,0.019971922475031385,0.0
1.0677083333333182,0.019916911045943304,0.019971653077238114,0.0
1.068359374999985,0.019916911045943304,0.019971512600038585,0.0
1.0690104166666516,0.019794721407624633,0.019971490588829938,0.0
1.0696614583333184,0.019794721407624633,0.01997157737741324,0.0
1.0703124999999851,0.019672531769305963,0.01997176421691888,0.0
1.0709635416666519,0.019672531769305963,0.0199720432308771,0.0
1.0716145833333186,0.019794721407624633,0.019972407216051574,0.0
1.0722656249999853,0.019916911045943304,0.01997284932440382,0.0
1.072916666666652,0.020039100684261974,0.019973362686887326,0.0
1.0735677083333188,0.020039100684261974,0.019973940058776618,0.0
1.0742187499999856,0.020161290322580645,0.019974573559295123,0.0
1.0748697916666523,0.020039100684261974,0.019975254547881103,0.0
1.075520833333319,0.020283479960899315,0.01997597364539093,0.0
1.0761718749999858,0.020161290322580645,0.01997672088714782,0.0
1.0768229166666525,0.020283479960899315,0.019977485988802328,0.0
1.0774739583333193,0.020283479960899315,0.019978258705451734,0.0
1.078124999999986,0.020161290322580645,0.019979029259975026,0.0
1.0787760416666528,0.020161290322580645,0.019979788807460867,0.0
1.0794270833333195,0.020039100684261974,0.01998052989107031,0.0
1.0800781249999862,0.020039100684261974,0.019981246837943778,0.0
1.080729166666653,0.019916911045943304,0.01998193604995428,0.0
1.0813802083333197,0.019916911045943304,0.019982596159154913,0.0
1.0820312499999865,0.019916911045943304,0.01998322803385155,0.0
1.0826822916666532,0.019794721407624633,0.01998383463729204,0.0
1.08333333333332,0.019916911045943304,0.01998442075506125,0.0
1.0839843749999867,0.019916911045943304,0.01998499261697755,0.0
1.0846354166666534,0.020039100684261974,0.019985557449785557,0.0
1.0852864583333202,0.020039100684261974,0.019986123009433306,0.0
1.085937499999987,0.020283479960899315,0.019986697146802117,0.0
1.0865885416666536,0.020405669599217986,0.019987287457890263,0.0
1.0872395833333204,0.020283479960899315,0.019987901065384235,0.0
1.0878906249999871,0.020405669599217986,0.019988544563508924,0.0
1.0885416666666539,0.020405669599217986,0.019989224123789066,0.0
1.0891927083333206,0.020283479960899315,0.019989945727116175,0.0
1.0898437499999873,0.020161290322580645,0.019990715473085244,0.0
1.090494791666654,0.019916911045943304,0.019991539905293332,0.0
1.0911458333333208,0.019916911045943304,0.019992426274884973,0.0
1.0917968749999876,0.019794721407624633,0.019993382664633887,0.0
1.0924479166666543,0.019916911045943304,0.01999441792548542,0.0
1.093098958333321,0.019794721407624633,0.019995541423965205,0.0
1.0937499999999878,0.019794721407624633,0.01999676263660411,0.0
1.0944010416666545,0.019794721407624633,0.019998090640334157,0.0
1.0950520833333213,0.020161290322580645,0.01999953354588346,0.0
1.095703124999988,0.020283479960899315,0.020001097932388672,0.0
1.0963541666666548,0.020283479960899315,0.020002788368435703,0.0
1.0970052083333215,0.020405669599217986,0.020004607109320702,0.0
1.0976562499999882,0.020405669599217986,0.020006554020795677,0.0
1.098307291666655,0.020405669599217986,0.02000862672713851,0.0
1.0989583333333217,0.020283479960899315,0.020010820947427913,0.0
1.0996093749999885,0.020161290322580645,0.020013130962408764,0.0
1.1002604166666552,0.020161290322580645,0.020015550136203524,0.0
1.100911458333322,0.020039100684261974,0.020018071412781228,0.0
1.1015624999999887,0.020161290322580645,0.02002068772520883,0.0
1.1022135416666554,0.020039100684261974,0.020023392287535087,0.0
1.1028645833333222,0.019916911045943304,0.020026178766614843,0.0
1.103515624999989,0.019916911045943304,0.020029041339715236,0.0
1.1041666666666556,0.019916911045943304,0.02003197463772881,0.0
1.1048177083333224,0.019916911045943304,0.02003497357602503,0.0
1.1054687499999891,0.019916911045943304,0.020038033092757885,0.0
1.1061197916666559,0.020039100684261974,0.020041147830720727,0.0
1.1067708333333226,0.020039100684261974,0.020044311805179287,0.0
1.1074218749999893,0.020161290322580645,0.020047518102368725,0.0
1.108072916666656,0.020039100684261974,0.020050758650146425,0.0
1.1087239583333228,0.020283479960899315,0.020054024088563965,0.0
1.1093749999999896,0.020283479960899315,0.02005730375216201,0.0
1.1100260416666563,0.020283479960899315,0.020060585770192093,0.0
1.110677083333323,0.020405669599217986,0.02006385728934841,0.0
1.1113281249999898,0.020283479960899315,0.020067104812452902,0.0
1.1119791666666565,0.020283479960899315,0.020070314629468032,0.0
1.1126302083333233,0.020161290322580645,0.02007347330157655,0.0
1.11328124999999,0.019916911045943304,0.02007656814438977,0.0
1.1139322916666567,0.019916911045943304,0.020079587644591952,0.0
1.1145833333333235,0.019794721407624633,0.020082521743471558,0.0
1.1152343749999902,0.019916911045943304,0.020085361941297973,0.0
1.115885416666657,0.019794721407624633,0.02008810121646615,0.0
1.1165364583333237,0.019794721407624633,0.020090733790073045,0.0
1.1171874999999905,0.019916911045943304,0.02009325478114774,0.0
1.1178385416666572,0.020161290322580645,0.020095659800511534,0.0
1.118489583333324,0.020283479960899315,0.020097944545514862,0.0
1.1191406249999907,0.020283479960899315,0.02010010447776629,0.0
1.1197916666666574,0.020405669599217986,0.02010213465906712,0.0
1.1204427083333242,0.020283479960899315,0.020104029779747856,0.0
1.121093749999991,0.020283479960899315,0.020105784365627852,0.0
1.1217447916666576,0.020283479960899315,0.020107393116439217,0.0
1.1223958333333244,0.020039100684261974,0.020108851312841566,0.0
1.1230468749999911,0.020039100684261974,0.02011015522568071,0.0
1.1236979166666579,0.019916911045943304,0.020111302462223063,0.0
1.1243489583333246,0.020039100684261974,0.02011229219424677,0.0
1.1249999999999913,0.019916911045943304,0.020113125241325247,0.0
1.125651041666658,0.019794721407624633,0.020113804015623946,0.0
1.1263020833333248,0.019794721407624633,0.020114332346551324,0.0
1.1269531249999916,0.019916911045943304,0.020114715197182085,0.0
1.1276041666666583,0.020039100684261974,0.02011495829012571,0.0
1.128255208333325,0.019916911045943304,0.020115067687595207,0.0
1.1289062499999918,0.020039100684261974,0.0201150493869996,0.0
1.1295572916666585,0.020039100684261974,0.020114908978051245,0.0
1.1302083333333253,0.020161290322580645,0.020114651382947525,0.0
1.130859374999992,0.020161290322580645,0.020114280692850976,0.0
1.1315104166666587,0.020161290322580645,0.020113800113592865,0.0
1.1321614583333255,0.020161290322580645,0.020113212024149722,0.0
1.1328124999999922,0.020161290322580645,0.02011251813405931,0.0
1.133463541666659,0.020283479960899315,0.020111719714091616,0.0
1.1341145833333257,0.020161290322580645,0.020110817876122837,0.0
1.1347656249999925,0.020161290322580645,0.02010981388462152,0.0
1.1354166666666592,0.020039100684261974,0.02010870947830251,0.0
1.136067708333326,0.019672531769305963,0.02010750716435203,0.0
1.1367187499999927,0.019794721407624633,0.020106210428640213,0.0
1.1373697916666594,0.019672531769305963,0.020104823799221874,0.0
1.1380208333333262,0.019794721407624633,0.020103352726213455,0.0
1.138671874999993,0.019672531769305963,0.020101803291033917,0.0
1.1393229166666596,0.019794721407624633,0.02010018179494616,0.0
1.1399739583333264,0.019794721407624633,0.02009849428478111,0.0
1.1406249999999931,0.020161290322580645,0.02009674607213784,0.0
1.1412760416666599,0.020283479960899315,0.02009494131177443,0.0
1.1419270833333266,0.020161290322580645,0.02009308271868391,0.0
1.1425781249999933,0.020283479960899315,0.020091171489837942,0.0
1.14322916666666,0.020283479960899315,0.020089207445660357,0.0
1.1438802083333268,0.020283479960899315,0.020087189356833672,0.0
1.1445312499999936,0.020161290322580645,0.020085115404291694,0.0
1.1451822916666603,0.019916911045943304,0.020082983714367016,0.0
1.145833333333327,0.019916911045943304,0.02008079289504683,0.0
1.1464843749999938,0.019794721407624633,0.0200785424877007,0.0
1.1471354166666605,0.019794721407624633,0.020076233264691656,0.0
1.1477864583333273,0.019794721407624633,0.020073867342358546,0.0
1.148437499999994,0.019672531769305963,0.02007144811625133,0.0
1.1490885416666607,0.019794721407624633,0.020068980046343513,0.0
1.1497395833333275,0.019916911045943304,0.020066468329288063,0.0
1.1503906249999942,0.020039100684261974,0.02006391850778414,0.0
1.151041666666661,0.019916911045943304,0.02006133608385133,0.0
1.1516927083333277,0.020161290322580645,0.020058726200703453,0.0
1.1523437499999944,0.020039100684261974,0.02005609343143645,0.0
1.1529947916666612,0.020161290322580645,0.02005344168631642,0.0
1.153645833333328,0.020039100684261974,0.02005077423541787,0.0
1.1542968749999947,0.020039100684261974,0.020048093829150456,0.0
1.1549479166666614,0.020161290322580645,0.020045402885306932,0.0
1.1555989583333282,0.020161290322580645,0.02004270371075342,0.0
1.156249999999995,0.020161290322580645,0.02003999874144795,0.0
1.1569010416666616,0.020039100684261974,0.020037290796930268,0.0
1.1575520833333284,0.019916911045943304,0.020034583336146855,0.0
1.1582031249999951,0.019916911045943304,0.020031880678996892,0.0
1.1588541666666619,0.019794721407624633,0.020029188146869152,0.0
1.1595052083333286,0.019794721407624633,0.020026512086430102,0.0
1.1601562499999953,0.019672531769305963,0.02002385976229611,0.0
1.160807291666662,0.019794721407624633,0.02002123912166617,0.0
1.1614583333333288,0.019794721407624633,0.02001865844892946,0.0
1.1621093749999956,0.019916911045943304,0.020016125947272694,0.0
1.1627604166666623,0.019916911045943304,0.020013649301524977,0.0
1.163411458333329,0.020161290322580645,0.020011235281150473,0.0
1.1640624999999958,0.020283479960899315,0.020008889437721916,0.0
1.1647135416666625,0.020283479960899315,0.020006615946831365,0.0
1.1653645833333293,0.020405669599217986,0.02000441763333304,0.0
1.166015624999996,0.020283479960899315,0.020002296190086397,0.0
1.1666666666666627,0.020283479960899315,0.02000025256318787,0.0
1.1673177083333295,0.020161290322580645,0.01999828744698885,0.0
1.1679687499999962,0.019916911045943304,0.019996401814050203,0.0
1.168619791666663,0.019916911045943304,0.019994597396416992,0.0
